 % time (yr) / global CaCO3 flux (mol yr-1) / global CaCO3 density (mol m-2 yr-1) / global CaCO3 DOM fraction
       0.500  0.3305237E+15  0.8861568E+00    0.000
       1.500  0.2985256E+15  0.8003675E+00    0.000
       2.500  0.2704056E+15  0.7249761E+00    0.000
       3.500  0.2464868E+15  0.6608481E+00    0.000
       4.500  0.2270225E+15  0.6086630E+00    0.000
       5.500  0.2115873E+15  0.5672801E+00    0.000
       6.500  0.1993749E+15  0.5345378E+00    0.000
       7.500  0.1895193E+15  0.5081143E+00    0.000
       8.500  0.1813342E+15  0.4861693E+00    0.000
       9.500  0.1744417E+15  0.4676902E+00    0.000
      10.500  0.1685915E+15  0.4520055E+00    0.000
      11.500  0.1636328E+15  0.4387109E+00    0.000
      12.500  0.1594230E+15  0.4274241E+00    0.000
      13.500  0.1556283E+15  0.4172501E+00    0.000
      14.500  0.1522654E+15  0.4082341E+00    0.000
      15.500  0.1493266E+15  0.4003549E+00    0.000
      16.500  0.1468561E+15  0.3937314E+00    0.000
      17.500  0.1447186E+15  0.3880005E+00    0.000
      18.500  0.1427667E+15  0.3827672E+00    0.000
      19.500  0.1410578E+15  0.3781857E+00    0.000
      21.500  0.1384336E+15  0.3711500E+00    0.000
      23.500  0.1367775E+15  0.3667098E+00    0.000
      25.500  0.1353670E+15  0.3629282E+00    0.000
      27.500  0.1342398E+15  0.3599061E+00    0.000
      29.500  0.1334776E+15  0.3578627E+00    0.000
      31.500  0.1330876E+15  0.3568170E+00    0.000
      33.500  0.1328017E+15  0.3560505E+00    0.000
      35.500  0.1324824E+15  0.3551944E+00    0.000
      37.500  0.1322723E+15  0.3546312E+00    0.000
      39.500  0.1320305E+15  0.3539829E+00    0.000
      41.500  0.1319357E+15  0.3537287E+00    0.000
      43.500  0.1318559E+15  0.3535147E+00    0.000
      45.500  0.1318448E+15  0.3534849E+00    0.000
      47.500  0.1320649E+15  0.3540751E+00    0.000
      49.500  0.1322846E+15  0.3546640E+00    0.000
      51.500  0.1325703E+15  0.3554301E+00    0.000
      53.500  0.1328063E+15  0.3560628E+00    0.000
      55.500  0.1332282E+15  0.3571939E+00    0.000
      57.500  0.1336074E+15  0.3582106E+00    0.000
      59.500  0.1341027E+15  0.3595387E+00    0.000
      61.500  0.1346610E+15  0.3610354E+00    0.000
      63.500  0.1351288E+15  0.3622895E+00    0.000
      65.500  0.1356559E+15  0.3637028E+00    0.000
      67.500  0.1360900E+15  0.3648667E+00    0.000
      69.500  0.1366730E+15  0.3664297E+00    0.000
      71.500  0.1372526E+15  0.3679835E+00    0.000
      73.500  0.1378061E+15  0.3694675E+00    0.000
      75.500  0.1383193E+15  0.3708435E+00    0.000
      77.500  0.1388685E+15  0.3723160E+00    0.000
      79.500  0.1394242E+15  0.3738060E+00    0.000
      81.500  0.1399767E+15  0.3752871E+00    0.000
      83.500  0.1405834E+15  0.3769137E+00    0.000
      85.500  0.1412016E+15  0.3785713E+00    0.000
      87.500  0.1417942E+15  0.3801600E+00    0.000
      89.500  0.1423703E+15  0.3817046E+00    0.000
      91.500  0.1430187E+15  0.3834430E+00    0.000
      93.500  0.1437515E+15  0.3854075E+00    0.000
      95.500  0.1443689E+15  0.3870628E+00    0.000
      97.500  0.1449654E+15  0.3886621E+00    0.000
      99.500  0.1454302E+15  0.3899085E+00    0.000
     104.500  0.1468961E+15  0.3938386E+00    0.000
     109.500  0.1482033E+15  0.3973432E+00    0.000
     114.500  0.1494278E+15  0.4006261E+00    0.000
     119.500  0.1506686E+15  0.4039530E+00    0.000
     124.500  0.1519902E+15  0.4074962E+00    0.000
     129.500  0.1532414E+15  0.4108507E+00    0.000
     134.500  0.1545136E+15  0.4142617E+00    0.000
     139.500  0.1557736E+15  0.4176398E+00    0.000
     144.500  0.1569128E+15  0.4206941E+00    0.000
     149.500  0.1581620E+15  0.4240432E+00    0.000
     154.500  0.1591843E+15  0.4267841E+00    0.000
     159.500  0.1603931E+15  0.4300248E+00    0.000
     164.500  0.1614036E+15  0.4327341E+00    0.000
     169.500  0.1624451E+15  0.4355264E+00    0.000
     174.500  0.1636109E+15  0.4386522E+00    0.000
     179.500  0.1645785E+15  0.4412463E+00    0.000
     184.500  0.1655609E+15  0.4438802E+00    0.000
     189.500  0.1664841E+15  0.4463552E+00    0.000
     194.500  0.1674954E+15  0.4490667E+00    0.000
     199.500  0.1686618E+15  0.4521939E+00    0.000
     204.500  0.1694324E+15  0.4542599E+00    0.000
     209.500  0.1703292E+15  0.4566643E+00    0.000
     214.500  0.1712900E+15  0.4592402E+00    0.000
     219.500  0.1719904E+15  0.4611180E+00    0.000
     224.500  0.1729776E+15  0.4637647E+00    0.000
     229.500  0.1739931E+15  0.4664876E+00    0.000
     234.500  0.1746832E+15  0.4683376E+00    0.000
     239.500  0.1754140E+15  0.4702970E+00    0.000
     244.500  0.1760380E+15  0.4719700E+00    0.000
     249.500  0.1767161E+15  0.4737879E+00    0.000
     254.500  0.1774859E+15  0.4758520E+00    0.000
     259.500  0.1781582E+15  0.4776544E+00    0.000
     264.500  0.1790623E+15  0.4800783E+00    0.000
     269.500  0.1796211E+15  0.4815766E+00    0.000
     274.500  0.1802059E+15  0.4831444E+00    0.000
     279.500  0.1808978E+15  0.4849994E+00    0.000
     284.500  0.1815433E+15  0.4867301E+00    0.000
     289.500  0.1820804E+15  0.4881700E+00    0.000
     294.500  0.1828631E+15  0.4902686E+00    0.000
     299.500  0.1836684E+15  0.4924275E+00    0.000
     304.500  0.1843117E+15  0.4941522E+00    0.000
     309.500  0.1848413E+15  0.4955722E+00    0.000
     314.500  0.1854060E+15  0.4970863E+00    0.000
     319.500  0.1858119E+15  0.4981744E+00    0.000
     324.500  0.1862501E+15  0.4993494E+00    0.000
     329.500  0.1867277E+15  0.5006297E+00    0.000
     334.500  0.1871896E+15  0.5018681E+00    0.000
     339.500  0.1875819E+15  0.5029199E+00    0.000
     344.500  0.1883186E+15  0.5048950E+00    0.000
     349.500  0.1887021E+15  0.5059233E+00    0.000
     354.500  0.1891660E+15  0.5071671E+00    0.000
     359.500  0.1894805E+15  0.5080102E+00    0.000
     364.500  0.1899163E+15  0.5091787E+00    0.000
     369.500  0.1903439E+15  0.5103252E+00    0.000
     374.500  0.1907642E+15  0.5114520E+00    0.000
     379.500  0.1915459E+15  0.5135477E+00    0.000
     384.500  0.1921163E+15  0.5150770E+00    0.000
     389.500  0.1925594E+15  0.5162651E+00    0.000
     394.500  0.1930383E+15  0.5175489E+00    0.000
     399.500  0.1933030E+15  0.5182585E+00    0.000
     404.500  0.1936702E+15  0.5192432E+00    0.000
     409.500  0.1940535E+15  0.5202709E+00    0.000
     414.500  0.1943116E+15  0.5209628E+00    0.000
     419.500  0.1945713E+15  0.5216591E+00    0.000
     424.500  0.1949820E+15  0.5227602E+00    0.000
     429.500  0.1952366E+15  0.5234426E+00    0.000
     434.500  0.1956077E+15  0.5244376E+00    0.000
     439.500  0.1959890E+15  0.5254601E+00    0.000
     444.500  0.1961914E+15  0.5260025E+00    0.000
     449.500  0.1964046E+15  0.5265741E+00    0.000
     454.500  0.1967587E+15  0.5275237E+00    0.000
     459.500  0.1972880E+15  0.5289426E+00    0.000
     464.500  0.1977557E+15  0.5301966E+00    0.000
     469.500  0.1980183E+15  0.5309006E+00    0.000
     474.500  0.1982902E+15  0.5316297E+00    0.000
     479.500  0.1986398E+15  0.5325670E+00    0.000
     484.500  0.1990423E+15  0.5336461E+00    0.000
     489.500  0.1993558E+15  0.5344865E+00    0.000
     494.500  0.1993858E+15  0.5345671E+00    0.000
     499.500  0.1995371E+15  0.5349726E+00    0.000
     504.500  0.1997062E+15  0.5354261E+00    0.000
     509.500  0.1999595E+15  0.5361053E+00    0.000
     514.500  0.2001861E+15  0.5367127E+00    0.000
     519.500  0.2004592E+15  0.5374450E+00    0.000
     524.500  0.2006983E+15  0.5380859E+00    0.000
     529.500  0.2010918E+15  0.5391409E+00    0.000
     534.500  0.2010747E+15  0.5390951E+00    0.000
     539.500  0.2015781E+15  0.5404448E+00    0.000
     544.500  0.2019304E+15  0.5413893E+00    0.000
     549.500  0.2021996E+15  0.5421109E+00    0.000
     554.500  0.2025217E+15  0.5429746E+00    0.000
     559.500  0.2028177E+15  0.5437683E+00    0.000
     564.500  0.2030709E+15  0.5444469E+00    0.000
     569.500  0.2033198E+15  0.5451145E+00    0.000
     574.500  0.2033877E+15  0.5452963E+00    0.000
     579.500  0.2034049E+15  0.5453426E+00    0.000
     584.500  0.2035326E+15  0.5456849E+00    0.000
     589.500  0.2037138E+15  0.5461707E+00    0.000
     594.500  0.2039266E+15  0.5467412E+00    0.000
     599.500  0.2041037E+15  0.5472160E+00    0.000
     604.500  0.2044217E+15  0.5480686E+00    0.000
     609.500  0.2046871E+15  0.5487801E+00    0.000
     614.500  0.2046632E+15  0.5487162E+00    0.000
     619.500  0.2049151E+15  0.5493913E+00    0.000
     624.500  0.2052259E+15  0.5502248E+00    0.000
     629.500  0.2056421E+15  0.5513406E+00    0.000
     634.500  0.2057303E+15  0.5515771E+00    0.000
     639.500  0.2060858E+15  0.5525303E+00    0.000
     644.500  0.2063906E+15  0.5533473E+00    0.000
     649.500  0.2066573E+15  0.5540624E+00    0.000
     654.500  0.2067761E+15  0.5543809E+00    0.000
     659.500  0.2068598E+15  0.5546055E+00    0.000
     664.500  0.2068941E+15  0.5546974E+00    0.000
     669.500  0.2068994E+15  0.5547114E+00    0.000
     674.500  0.2070440E+15  0.5550992E+00    0.000
     679.500  0.2071054E+15  0.5552638E+00    0.000
     684.500  0.2071141E+15  0.5552871E+00    0.000
     689.500  0.2072945E+15  0.5557707E+00    0.000
     694.500  0.2075707E+15  0.5565112E+00    0.000
     699.500  0.2077672E+15  0.5570382E+00    0.000
     704.500  0.2078267E+15  0.5571978E+00    0.000
     709.500  0.2078950E+15  0.5573808E+00    0.000
     714.500  0.2081914E+15  0.5581755E+00    0.000
     719.500  0.2085193E+15  0.5590545E+00    0.000
     724.500  0.2086874E+15  0.5595052E+00    0.000
     729.500  0.2087820E+15  0.5597590E+00    0.000
     734.500  0.2090768E+15  0.5605492E+00    0.000
     739.500  0.2093682E+15  0.5613306E+00    0.000
     744.500  0.2094848E+15  0.5616432E+00    0.000
     749.500  0.2096906E+15  0.5621949E+00    0.000
     754.500  0.2096393E+15  0.5620574E+00    0.000
     759.500  0.2096446E+15  0.5620716E+00    0.000
     764.500  0.2097346E+15  0.5623129E+00    0.000
     769.500  0.2097467E+15  0.5623454E+00    0.000
     774.500  0.2098513E+15  0.5626257E+00    0.000
     779.500  0.2098878E+15  0.5627235E+00    0.000
     784.500  0.2098001E+15  0.5624886E+00    0.000
     789.500  0.2099768E+15  0.5629621E+00    0.000
     794.500  0.2102358E+15  0.5636566E+00    0.000
     799.500  0.2104833E+15  0.5643202E+00    0.000
     804.500  0.2107105E+15  0.5649293E+00    0.000
     809.500  0.2108150E+15  0.5652096E+00    0.000
     814.500  0.2109985E+15  0.5657016E+00    0.000
     819.500  0.2111533E+15  0.5661166E+00    0.000
     824.500  0.2113333E+15  0.5665990E+00    0.000
     829.500  0.2115247E+15  0.5671121E+00    0.000
     834.500  0.2114617E+15  0.5669435E+00    0.000
     839.500  0.2116132E+15  0.5673494E+00    0.000
     844.500  0.2115978E+15  0.5673081E+00    0.000
     849.500  0.2115743E+15  0.5672452E+00    0.000
     854.500  0.2115832E+15  0.5672691E+00    0.000
     859.500  0.2116561E+15  0.5674644E+00    0.000
     864.500  0.2115231E+15  0.5671079E+00    0.000
     869.500  0.2115474E+15  0.5671730E+00    0.000
     874.500  0.2116339E+15  0.5674050E+00    0.000
     879.500  0.2118883E+15  0.5680871E+00    0.000
     884.500  0.2121697E+15  0.5688416E+00    0.000
     889.500  0.2123331E+15  0.5692796E+00    0.000
     894.500  0.2125107E+15  0.5697557E+00    0.000
     899.500  0.2126970E+15  0.5702552E+00    0.000
     904.500  0.2127643E+15  0.5704356E+00    0.000
     909.500  0.2129120E+15  0.5708317E+00    0.000
     914.500  0.2128995E+15  0.5707981E+00    0.000
     919.500  0.2130666E+15  0.5712462E+00    0.000
     924.500  0.2131386E+15  0.5714391E+00    0.000
     929.500  0.2131112E+15  0.5713658E+00    0.000
     934.500  0.2129426E+15  0.5709138E+00    0.000
     939.500  0.2129698E+15  0.5709865E+00    0.000
     944.500  0.2130162E+15  0.5711110E+00    0.000
     949.500  0.2128932E+15  0.5707813E+00    0.000
     954.500  0.2129559E+15  0.5709495E+00    0.000
     959.500  0.2130143E+15  0.5711060E+00    0.000
     964.500  0.2129721E+15  0.5709930E+00    0.000
     969.500  0.2132500E+15  0.5717380E+00    0.000
     974.500  0.2135126E+15  0.5724418E+00    0.000
     979.500  0.2136728E+15  0.5728715E+00    0.000
     984.500  0.2136877E+15  0.5729113E+00    0.000
     989.500  0.2139140E+15  0.5735181E+00    0.000
     994.500  0.2140344E+15  0.5738409E+00    0.000
     999.500  0.2141196E+15  0.5740694E+00    0.000
    1019.500  0.2144321E+15  0.5749072E+00    0.000
    1039.500  0.2141525E+15  0.5741575E+00    0.000
    1059.500  0.2139891E+15  0.5737194E+00    0.000
    1079.500  0.2146408E+15  0.5754668E+00    0.000
    1099.500  0.2150737E+15  0.5766274E+00    0.000
    1119.500  0.2154036E+15  0.5775119E+00    0.000
    1139.500  0.2156775E+15  0.5782462E+00    0.000
    1159.500  0.2157726E+15  0.5785012E+00    0.000
    1179.500  0.2159110E+15  0.5788721E+00    0.000
    1199.500  0.2160214E+15  0.5791681E+00    0.000
    1219.500  0.2160837E+15  0.5793351E+00    0.000
    1239.500  0.2161525E+15  0.5795197E+00    0.000
    1259.500  0.2162717E+15  0.5798394E+00    0.000
    1279.500  0.2161943E+15  0.5796317E+00    0.000
    1299.500  0.2163504E+15  0.5800502E+00    0.000
    1319.500  0.2165911E+15  0.5806957E+00    0.000
    1339.500  0.2168166E+15  0.5813001E+00    0.000
    1359.500  0.2168632E+15  0.5814250E+00    0.000
    1379.500  0.2167334E+15  0.5810772E+00    0.000
    1399.500  0.2168089E+15  0.5812796E+00    0.000
    1419.500  0.2168261E+15  0.5813258E+00    0.000
    1439.500  0.2167795E+15  0.5812007E+00    0.000
    1459.500  0.2167920E+15  0.5812342E+00    0.000
    1479.500  0.2166775E+15  0.5809273E+00    0.000
    1499.500  0.2165592E+15  0.5806101E+00    0.000
    1519.500  0.2165926E+15  0.5806997E+00    0.000
    1539.500  0.2164752E+15  0.5803850E+00    0.000
    1559.500  0.2164491E+15  0.5803148E+00    0.000
    1579.500  0.2163464E+15  0.5800395E+00    0.000
    1599.500  0.2162956E+15  0.5799033E+00    0.000
    1619.500  0.2161589E+15  0.5795368E+00    0.000
    1639.500  0.2161795E+15  0.5795921E+00    0.000
    1659.500  0.2160377E+15  0.5792119E+00    0.000
    1679.500  0.2159058E+15  0.5788582E+00    0.000
    1699.500  0.2159218E+15  0.5789012E+00    0.000
    1719.500  0.2157756E+15  0.5785092E+00    0.000
    1739.500  0.2157466E+15  0.5784314E+00    0.000
    1759.500  0.2156437E+15  0.5781557E+00    0.000
    1779.500  0.2155976E+15  0.5780320E+00    0.000
    1799.500  0.2154843E+15  0.5777283E+00    0.000
    1819.500  0.2155466E+15  0.5778953E+00    0.000
    1839.500  0.2154127E+15  0.5775362E+00    0.000
    1859.500  0.2152698E+15  0.5771532E+00    0.000
    1879.500  0.2152640E+15  0.5771375E+00    0.000
    1899.500  0.2152288E+15  0.5770432E+00    0.000
    1919.500  0.2151342E+15  0.5767895E+00    0.000
    1939.500  0.2151282E+15  0.5767735E+00    0.000
    1959.500  0.2150967E+15  0.5766890E+00    0.000
    1979.500  0.2150506E+15  0.5765655E+00    0.000
    1999.500  0.2149222E+15  0.5762213E+00    0.000
    2049.500  0.2147773E+15  0.5758328E+00    0.000
    2099.500  0.2147392E+15  0.5757306E+00    0.000
    2149.500  0.2146576E+15  0.5755117E+00    0.000
    2199.500  0.2146386E+15  0.5754609E+00    0.000
    2249.500  0.2144365E+15  0.5749190E+00    0.000
    2299.500  0.2143206E+15  0.5746081E+00    0.000
    2349.500  0.2143149E+15  0.5745930E+00    0.000
    2399.500  0.2142500E+15  0.5744189E+00    0.000
    2449.500  0.2141980E+15  0.5742797E+00    0.000
    2499.500  0.2139893E+15  0.5737200E+00    0.000
    2549.500  0.2140382E+15  0.5738511E+00    0.000
    2599.500  0.2140408E+15  0.5738580E+00    0.000
    2649.500  0.2139101E+15  0.5735077E+00    0.000
    2699.500  0.2138464E+15  0.5733368E+00    0.000
    2749.500  0.2138589E+15  0.5733705E+00    0.000
    2799.500  0.2137143E+15  0.5729826E+00    0.000
    2849.500  0.2137340E+15  0.5730354E+00    0.000
    2899.500  0.2139174E+15  0.5735271E+00    0.000
    2949.500  0.2137800E+15  0.5731589E+00    0.000
    2999.500  0.2136634E+15  0.5728462E+00    0.000
    3049.500  0.2136835E+15  0.5729001E+00    0.000
    3099.500  0.2137768E+15  0.5731502E+00    0.000
    3149.500  0.2137848E+15  0.5731718E+00    0.000
    3199.500  0.2137683E+15  0.5731276E+00    0.000
    3249.500  0.2137899E+15  0.5731854E+00    0.000
    3299.500  0.2138165E+15  0.5732566E+00    0.000
    3349.500  0.2138000E+15  0.5732124E+00    0.000
    3399.500  0.2137414E+15  0.5730553E+00    0.000
    3449.500  0.2138449E+15  0.5733328E+00    0.000
    3499.500  0.2139515E+15  0.5736186E+00    0.000
    3549.500  0.2137921E+15  0.5731914E+00    0.000
    3599.500  0.2137484E+15  0.5730742E+00    0.000
    3649.500  0.2138923E+15  0.5734601E+00    0.000
    3699.500  0.2138847E+15  0.5734396E+00    0.000
    3749.500  0.2139063E+15  0.5734974E+00    0.000
    3799.500  0.2140012E+15  0.5737518E+00    0.000
    3849.500  0.2138960E+15  0.5734698E+00    0.000
    3899.500  0.2138433E+15  0.5733287E+00    0.000
    3949.500  0.2139951E+15  0.5737356E+00    0.000
    3999.500  0.2140005E+15  0.5737501E+00    0.000
    4049.500  0.2139392E+15  0.5735857E+00    0.000
    4099.500  0.2139478E+15  0.5736086E+00    0.000
    4149.500  0.2140359E+15  0.5738450E+00    0.000
    4199.500  0.2141151E+15  0.5740574E+00    0.000
    4249.500  0.2143012E+15  0.5745563E+00    0.000
    4299.500  0.2142019E+15  0.5742901E+00    0.000
    4349.500  0.2142368E+15  0.5743837E+00    0.000
    4399.500  0.2142927E+15  0.5745333E+00    0.000
    4449.500  0.2142578E+15  0.5744399E+00    0.000
    4499.500  0.2144361E+15  0.5749180E+00    0.000
    4549.500  0.2144479E+15  0.5749494E+00    0.000
    4599.500  0.2145139E+15  0.5751264E+00    0.000
    4649.500  0.2145853E+15  0.5753180E+00    0.000
    4699.500  0.2147698E+15  0.5758126E+00    0.000
    4749.500  0.2147195E+15  0.5756777E+00    0.000
    4799.500  0.2147486E+15  0.5757558E+00    0.000
    4849.500  0.2147423E+15  0.5757388E+00    0.000
    4899.500  0.2149382E+15  0.5762641E+00    0.000
    4949.500  0.2148869E+15  0.5761265E+00    0.000
    4999.500  0.2150624E+15  0.5765971E+00    0.000
    5049.500  0.2150332E+15  0.5765187E+00    0.000
    5099.500  0.2151609E+15  0.5768613E+00    0.000
    5149.500  0.2152028E+15  0.5769735E+00    0.000
    5199.500  0.2153667E+15  0.5774130E+00    0.000
    5249.500  0.2153271E+15  0.5773066E+00    0.000
    5299.500  0.2155174E+15  0.5778168E+00    0.000
    5349.500  0.2155011E+15  0.5777732E+00    0.000
    5399.500  0.2156916E+15  0.5782839E+00    0.000
    5449.500  0.2156710E+15  0.5782289E+00    0.000
    5499.500  0.2157377E+15  0.5784075E+00    0.000
    5549.500  0.2158494E+15  0.5787071E+00    0.000
    5599.500  0.2159906E+15  0.5790857E+00    0.000
    5649.500  0.2160160E+15  0.5791538E+00    0.000
    5699.500  0.2160367E+15  0.5792092E+00    0.000
    5749.500  0.2162366E+15  0.5797451E+00    0.000
    5799.500  0.2162495E+15  0.5797799E+00    0.000
    5849.500  0.2163679E+15  0.5800973E+00    0.000
    5899.500  0.2164475E+15  0.5803105E+00    0.000
    5949.500  0.2164274E+15  0.5802567E+00    0.000
    5999.500  0.2165746E+15  0.5806514E+00    0.000
    6049.500  0.2166678E+15  0.5809013E+00    0.000
    6099.500  0.2166505E+15  0.5808549E+00    0.000
    6149.500  0.2168575E+15  0.5814099E+00    0.000
    6199.500  0.2169594E+15  0.5816831E+00    0.000
    6249.500  0.2169771E+15  0.5817306E+00    0.000
    6299.500  0.2171263E+15  0.5821305E+00    0.000
    6349.500  0.2171942E+15  0.5823126E+00    0.000
    6399.500  0.2172938E+15  0.5825796E+00    0.000
    6449.500  0.2173162E+15  0.5826397E+00    0.000
    6499.500  0.2174212E+15  0.5829212E+00    0.000
    6549.500  0.2175550E+15  0.5832799E+00    0.000
    6599.500  0.2176458E+15  0.5835233E+00    0.000
