 % time (yr) / surface air temperature (degrees C)
       0.500    2.680459
       1.500    6.414488
       2.500    8.916677
       3.500   10.669867
       4.500   11.985092
       5.500   13.013413
       6.500   13.839457
       7.500   14.519786
       8.500   15.094371
       9.500   15.591263
      10.500   16.029177
      11.500   16.421223
      12.500   16.783640
      13.500   17.175285
      14.500   17.445557
      15.500   17.760749
      16.500   17.993854
      17.500   18.225420
      18.500   18.471348
      19.500   18.657503
      21.500   19.065998
      23.500   19.407022
      25.500   19.654380
      27.500   19.956564
      29.500   20.149247
      31.500   20.386349
      33.500   20.571637
      35.500   20.737219
      37.500   20.891294
      39.500   21.040841
      41.500   21.185419
      43.500   21.316784
      45.500   21.442991
      47.500   21.549553
      49.500   21.657379
      51.500   21.784112
      53.500   21.869417
      55.500   21.957994
      57.500   22.057969
      59.500   22.144871
      61.500   22.229373
      63.500   22.299091
      65.500   22.373202
      67.500   22.437578
      69.500   22.499075
      71.500   22.569248
      73.500   22.598570
      75.500   22.686545
      77.500   22.712934
      79.500   22.752310
      81.500   22.835789
      83.500   22.846824
      85.500   22.876445
      87.500   22.950176
      89.500   22.970987
      91.500   22.991644
      93.500   23.055580
      95.500   23.109090
      97.500   23.103982
      99.500   23.145659
     104.500   23.229119
     109.500   23.299567
     114.500   23.366908
     119.500   23.432939
     124.500   23.482018
     129.500   23.525911
     134.500   23.564593
     139.500   23.594260
     144.500   23.634819
     149.500   23.658592
     154.500   23.734939
     159.500   23.783060
     164.500   23.825337
     169.500   23.831868
     174.500   23.840223
     179.500   23.898391
     184.500   23.959963
     189.500   23.949421
     194.500   23.959031
     199.500   24.037525
     204.500   24.021938
     209.500   24.047338
     214.500   24.111519
     219.500   24.107090
     224.500   24.132488
     229.500   24.204819
     234.500   24.164543
     239.500   24.223497
     244.500   24.210775
     249.500   24.198361
     254.500   24.253580
     259.500   24.200348
     264.500   24.310383
     269.500   24.256799
     274.500   24.298213
     279.500   24.308430
     284.500   24.339114
     289.500   24.357082
     294.500   24.364555
     299.500   24.417818
     304.500   24.440367
     309.500   24.444225
     314.500   24.458452
     319.500   24.452352
     324.500   24.456058
     329.500   24.451505
     334.500   24.454772
     339.500   24.437822
     344.500   24.491966
     349.500   24.468572
     354.500   24.516812
     359.500   24.466946
     364.500   24.554047
     369.500   24.481498
     374.500   24.567325
     379.500   24.569290
     384.500   24.593184
     389.500   24.624062
     394.500   24.610134
     399.500   24.660817
     404.500   24.605952
     409.500   24.643371
     414.500   24.625081
     419.500   24.575881
     424.500   24.640862
     429.500   24.584976
     434.500   24.630824
     439.500   24.615024
     444.500   24.638427
     449.500   24.662052
     454.500   24.609768
     459.500   24.713912
     464.500   24.718019
     469.500   24.702333
     474.500   24.771431
     479.500   24.737026
     484.500   24.749026
     489.500   24.764568
     494.500   24.679808
     499.500   24.726349
     504.500   24.718894
     509.500   24.662574
     514.500   24.723485
     519.500   24.699861
     524.500   24.719347
     529.500   24.747986
     534.500   24.671737
     539.500   24.764704
     544.500   24.809623
     549.500   24.756600
     554.500   24.804583
     559.500   24.829963
     564.500   24.797435
     569.500   24.829117
     574.500   24.817883
     579.500   24.746744
     584.500   24.792577
     589.500   24.784243
     594.500   24.711215
     599.500   24.784169
     604.500   24.764057
     609.500   24.758599
     614.500   24.800859
     619.500   24.773564
     624.500   24.800234
     629.500   24.866300
     634.500   24.847308
     639.500   24.820510
     644.500   24.892952
     649.500   24.895045
     654.500   24.834013
     659.500   24.861499
     664.500   24.865323
     669.500   24.803231
     674.500   24.831007
     679.500   24.820737
     684.500   24.754208
     689.500   24.816055
     694.500   24.839203
     699.500   24.777184
     704.500   24.827105
     709.500   24.837248
     714.500   24.831758
     719.500   24.873802
     724.500   24.918805
     729.500   24.887542
     734.500   24.909309
     739.500   24.949717
     744.500   24.915654
     749.500   24.864586
     754.500   24.919556
     759.500   24.918416
     764.500   24.840544
     769.500   24.849706
     774.500   24.874107
     779.500   24.816493
     784.500   24.845811
     789.500   24.868903
     794.500   24.832031
     799.500   24.901059
     804.500   24.953360
     809.500   24.936417
     814.500   24.894114
     819.500   24.946499
     824.500   24.958987
     829.500   24.927301
     834.500   24.933048
     839.500   24.969338
     844.500   24.918768
     849.500   24.886649
     854.500   24.926186
     859.500   24.895603
     864.500   24.831713
     869.500   24.885621
     874.500   24.907035
     879.500   24.860256
     884.500   24.911654
     889.500   24.988004
     894.500   24.961786
     899.500   24.946837
     904.500   24.984443
     909.500   24.997055
     914.500   24.955226
     919.500   24.963375
     924.500   24.994559
     929.500   24.983848
     934.500   24.903007
     939.500   24.916259
     944.500   24.954292
     949.500   24.908031
     954.500   24.898749
     959.500   24.933409
     964.500   24.898080
     969.500   24.907664
     974.500   24.988202
     979.500   25.016226
     984.500   24.982593
     989.500   24.981579
     994.500   25.032972
     999.500   25.044928
    1019.500   25.034759
    1039.500   24.956044
    1059.500   24.909224
    1079.500   24.982166
    1099.500   25.019278
    1119.500   25.021080
    1139.500   25.019408
    1159.500   25.021176
    1179.500   25.026273
    1199.500   25.032454
    1219.500   25.038635
    1239.500   25.044071
    1259.500   25.051264
    1279.500   25.065944
    1299.500   25.077328
    1319.500   25.095505
    1339.500   25.129649
    1359.500   25.150064
    1379.500   25.161403
    1399.500   25.158330
    1419.500   25.155941
    1439.500   25.137984
    1459.500   25.105165
    1479.500   25.094527
    1499.500   25.123896
    1519.500   25.137564
    1539.500   25.160482
    1559.500   25.183817
    1579.500   25.170633
    1599.500   25.163183
    1619.500   25.142430
    1639.500   25.112911
    1659.500   25.118260
    1679.500   25.133907
    1699.500   25.142880
    1719.500   25.166932
    1739.500   25.190873
    1759.500   25.174562
    1779.500   25.168171
    1799.500   25.144271
    1819.500   25.114259
    1839.500   25.126148
    1859.500   25.149106
    1879.500   25.153134
    1899.500   25.179100
    1919.500   25.197223
    1939.500   25.176977
    1959.500   25.167531
    1979.500   25.138844
    1999.500   25.133136
    2049.500   25.154689
    2099.500   25.181973
    2149.500   25.200289
    2199.500   25.197986
    2249.500   25.174957
    2299.500   25.175274
    2349.500   25.151371
    2399.500   25.130602
    2449.500   25.164712
    2499.500   25.168382
    2549.500   25.187059
    2599.500   25.203587
    2649.500   25.192738
    2699.500   25.216227
    2749.500   25.225598
    2799.500   25.221063
    2849.500   25.232384
    2899.500   25.236454
    2949.500   25.232712
    2999.500   25.230254
    3049.500   25.209925
    3099.500   25.211114
    3149.500   25.215231
    3199.500   25.210377
    3249.500   25.213680
    3299.500   25.221035
    3349.500   25.222196
    3399.500   25.232318
    3449.500   25.239602
    3499.500   25.254927
    3549.500   25.254852
    3599.500   25.246293
    3649.500   25.250632
    3699.500   25.232151
    3749.500   25.234894
    3799.500   25.232125
    3849.500   25.215020
    3899.500   25.204198
    3949.500   25.199610
    3999.500   25.179045
    4049.500   25.179121
    4099.500   25.222501
    4149.500   25.233979
    4199.500   25.241137
    4249.500   25.266511
    4299.500   25.271064
    4349.500   25.248862
    4399.500   25.246647
    4449.500   25.227267
    4499.500   25.190890
    4549.500   25.213900
    4599.500   25.242100
    4649.500   25.249380
    4699.500   25.279755
    4749.500   25.269639
    4799.500   25.253932
    4849.500   25.218160
    4899.500   25.210480
    4949.500   25.253171
    4999.500   25.267560
    5049.500   25.278026
    5099.500   25.268075
    5149.500   25.252439
    5199.500   25.223039
    5249.500   25.232922
    5299.500   25.264471
    5349.500   25.294971
    5399.500   25.280568
    5449.500   25.239933
    5499.500   25.208127
    5549.500   25.253231
    5599.500   25.302598
    5649.500   25.276733
    5699.500   25.244780
    5749.500   25.226983
    5799.500   25.272675
    5849.500   25.299344
    5899.500   25.278281
    5949.500   25.252032
    5999.500   25.239222
    6049.500   25.277336
    6099.500   25.301083
    6149.500   25.265526
    6199.500   25.239548
    6249.500   25.279436
    6299.500   25.308025
    6349.500   25.281290
    6399.500   25.241454
    6449.500   25.269370
    6499.500   25.314657
    6549.500   25.289415
    6599.500   25.247327
    6649.500   25.261978
    6699.500   25.305557
    6749.500   25.309860
    6799.500   25.245246
    6849.500   25.262465
    6899.500   25.314629
    6949.500   25.297179
    6999.500   25.257557
    7049.500   25.273588
    7099.500   25.318071
    7149.500   25.287712
    7199.500   25.252001
    7249.500   25.298267
    7299.500   25.308830
    7349.500   25.255436
    7399.500   25.270421
    7449.500   25.325104
    7499.500   25.301301
    7549.500   25.266609
    7599.500   25.294256
    7649.500   25.305660
    7699.500   25.260601
    7749.500   25.285451
    7799.500   25.336097
    7849.500   25.290785
    7899.500   25.262817
    7949.500   25.313369
    7999.500   25.302596
    8049.500   25.260284
    8099.500   25.306536
    8149.500   25.318493
    8199.500   25.257521
    8249.500   25.299589
    8299.500   25.312880
    8349.500   25.257249
    8399.500   25.298275
    8449.500   25.326591
    8499.500   25.280005
    8549.500   25.312067
    8599.500   25.325497
    8649.500   25.262206
    8699.500   25.295054
    8749.500   25.322761
    8799.500   25.269223
    8849.500   25.307586
    8899.500   25.328645
    8949.500   25.274175
    8999.500   25.335710
    9049.500   25.321232
    9099.500   25.265484
    9149.500   25.333403
    9199.500   25.292526
    9249.500   25.277089
    9299.500   25.348882
    9349.500   25.299887
    9399.500   25.314866
    9449.500   25.343186
    9499.500   25.289543
    9549.500   25.335384
    9599.500   25.323678
    9649.500   25.272159
    9699.500   25.334885
    9749.500   25.312170
    9799.500   25.302612
    9849.500   25.348197
    9899.500   25.293849
    9949.500   25.324427
    9999.500   25.338488
   10199.500   25.320811
   10399.500   25.302478
   10599.500   25.347538
   10799.500   25.290799
   10999.500   25.351020
   11199.500   25.336031
   11399.500   25.310235
   11599.500   25.359929
   11799.500   25.341037
   11999.500   25.294550
   12199.500   25.339657
   12399.500   25.379125
   12599.500   25.348993
   12799.500   25.309444
   12999.500   25.349221
   13199.500   25.378362
   13399.500   25.349739
   13599.500   25.315324
   13799.500   25.330548
   13999.500   25.363051
   14199.500   25.386386
   14399.500   25.351304
   14599.500   25.301776
   14799.500   25.340314
   14999.500   25.364109
   15199.500   25.371766
   15399.500   25.386597
   15599.500   25.344169
   15799.500   25.309169
   15999.500   25.325514
   16199.500   25.357039
   16399.500   25.365411
   16599.500   25.366043
   16799.500   25.391927
   16999.500   25.391630
   17199.500   25.356807
   17399.500   25.337482
   17599.500   25.312706
   17799.500   25.329118
   17999.500   25.359302
   18199.500   25.367307
   18399.500   25.368294
   18599.500   25.393957
   18799.500   25.395370
   18999.500   25.358411
   19199.500   25.338972
   19399.500   25.314739
   19599.500   25.329340
   19799.500   25.360355
   19999.500   25.367977
   20499.500   25.395564
   20999.500   25.339700
   21499.500   25.343860
   21999.500   25.369511
   22499.500   25.367257
   22999.500   25.315825
   23499.500   25.364979
   23999.500   25.395196
   24499.500   25.349213
   24999.500   25.330236
   25499.500   25.366327
   25999.500   25.396674
   26499.500   25.319418
   26999.500   25.361469
   27499.500   25.376153
   27999.500   25.359829
   28499.500   25.311914
   28999.500   25.368721
   29499.500   25.396134
   29999.500   25.340659
   30499.500   25.344372
   30999.500   25.370056
   31499.500   25.367849
   31999.500   25.316379
   32499.500   25.365279
   32999.500   25.395505
   33499.500   25.349290
   33999.500   25.330585
   34499.500   25.365915
   34999.500   25.396174
   35499.500   25.319610
   35999.500   25.361532
   36499.500   25.376154
   36999.500   25.359901
   37499.500   25.312000
   37999.500   25.368713
   38499.500   25.396175
   38999.500   25.340711
   39499.500   25.344404
   39999.500   25.370081
   40499.500   25.367870
   40999.500   25.316416
   41499.500   25.365287
   41999.500   25.395521
   42499.500   25.349297
   42999.500   25.330590
   43499.500   25.365856
   43999.500   25.396177
   44499.500   25.319615
   44999.500   25.361533
   45499.500   25.376176
   45999.500   25.359899
   46499.500   25.312017
   46999.500   25.368719
   47499.500   25.396177
   47999.500   25.340717
   48499.500   25.344397
   48999.500   25.370083
   49499.500   25.367883
   49999.500   25.316404
   50499.500   25.365293
   50999.500   25.395540
   51499.500   25.349258
   51999.500   25.330592
   52499.500   25.365795
   52999.500   25.396133
   53499.500   25.319643
   53999.500   25.361535
   54499.500   25.376153
   54999.500   25.359903
   55499.500   25.312015
   55999.500   25.368711
   56499.500   25.396172
   56999.500   25.340718
   57499.500   25.344407
   57999.500   25.370077
   58499.500   25.367883
   58999.500   25.316419
   59499.500   25.365268
   59999.500   25.395534
   60499.500   25.349298
   60999.500   25.330562
   61499.500   25.365829
   61999.500   25.396146
   62499.500   25.319614
   62999.500   25.361538
   63499.500   25.376158
   63999.500   25.359897
   64499.500   25.312005
   64999.500   25.368714
   65499.500   25.396177
   65999.500   25.340713
   66499.500   25.344405
   66999.500   25.370082
   67499.500   25.367872
   67999.500   25.316417
   68499.500   25.365287
   68999.500   25.395522
   69499.500   25.349297
   69999.500   25.330590
   70499.500   25.365856
   70999.500   25.396177
   71499.500   25.319616
   71999.500   25.361533
   72499.500   25.376175
   72999.500   25.359899
   73499.500   25.312017
   73999.500   25.368719
   74499.500   25.396177
   74999.500   25.340717
   75499.500   25.344397
   75999.500   25.370083
   76499.500   25.367883
   76999.500   25.316404
   77499.500   25.365293
   77999.500   25.395540
   78499.500   25.349258
   78999.500   25.330592
   79499.500   25.365795
   79999.500   25.396133
   80499.500   25.319643
   80999.500   25.361535
   81499.500   25.376153
   81999.500   25.359903
   82499.500   25.312015
   82999.500   25.368711
   83499.500   25.396172
   83999.500   25.340718
   84499.500   25.344407
   84999.500   25.370077
   85499.500   25.367883
   85999.500   25.316419
   86499.500   25.365268
   86999.500   25.395534
   87499.500   25.349298
   87999.500   25.330562
   88499.500   25.365829
   88999.500   25.396146
   89499.500   25.319614
   89999.500   25.361538
   90499.500   25.376158
   90999.500   25.359897
   91499.500   25.312005
   91999.500   25.368714
   92499.500   25.396177
   92999.500   25.340713
   93499.500   25.344405
   93999.500   25.370082
   94499.500   25.367872
   94999.500   25.316417
   95499.500   25.365287
   95999.500   25.395522
   96499.500   25.349297
   96999.500   25.330590
   97499.500   25.365856
   97999.500   25.396177
   98499.500   25.319616
   98999.500   25.361533
   99499.500   25.376175
   99999.500   25.359899
