 % time (yr) / temperature (C) / _surT (ice-free) (C) / _benT (C) / _surT (C)
       0.500    5.042513    7.949461    4.980658    7.949461
       1.500    5.112596   11.718012    4.955804   11.718012
       2.500    5.171845   13.984191    4.940920   13.984191
       3.500    5.223860   15.551823    4.929634   15.551823
       4.500    5.270666   16.726655    4.920249   16.726655
       5.500    5.313504   17.646075    4.912278   17.646075
       6.500    5.353215   18.386308    4.905459   18.386308
       7.500    5.390392   18.997375    4.899709   18.997375
       8.500    5.425461   19.514069    4.894778   19.514069
       9.500    5.458725   19.961313    4.890474   19.961313
      10.500    5.490415   20.355721    4.886599   20.355721
      11.500    5.520706   20.709236    4.883055   20.709236
      12.500    5.549724   21.030126    4.879563   21.030126
      13.500    5.577477   21.318181    4.876201   21.318181
      14.500    5.604079   21.576617    4.872905   21.576617
      15.500    5.629815   21.820565    4.869846   21.820565
      16.500    5.654652   22.046078    4.866770   22.046078
      17.500    5.678625   22.253694    4.863572   22.253694
      18.500    5.701918   22.453618    4.860276   22.453618
      19.500    5.724401   22.637238    4.856737   22.637238
      21.500    5.767503   22.975685    4.850151   22.975685
      23.500    5.808249   23.277040    4.844412   23.277040
      25.500    5.846837   23.535469    4.838882   23.535469
      27.500    5.883708   23.765968    4.832680   23.765968
      29.500    5.918923   23.971479    4.826797   23.971479
      31.500    5.952769   24.159687    4.821174   24.159687
      33.500    5.985278   24.327434    4.815413   24.327434
      35.500    6.016618   24.480836    4.809239   24.480836
      37.500    6.046933   24.620226    4.803388   24.620226
      39.500    6.076262   24.752199    4.797705   24.752199
      41.500    6.104638   24.879943    4.792618   24.879943
      43.500    6.132120   24.998395    4.787831   24.998395
      45.500    6.158723   25.109876    4.783374   25.109876
      47.500    6.184559   25.213159    4.779117   25.213159
      49.500    6.209642   25.311573    4.774995   25.311573
      51.500    6.234011   25.406550    4.771100   25.406550
      53.500    6.257660   25.496407    4.767183   25.496407
      55.500    6.280685   25.578539    4.763545   25.578539
      57.500    6.303087   25.658493    4.759837   25.658493
      59.500    6.324851   25.731781    4.756175   25.731781
      61.500    6.346184   25.807544    4.752673   25.807544
      63.500    6.366826   25.870009    4.749042   25.870009
      65.500    6.387129   25.936103    4.745358   25.936103
      67.500    6.406858   25.993282    4.741832   25.993282
      69.500    6.426204   26.045484    4.738509   26.045484
      71.500    6.445183   26.096261    4.735161   26.096261
      73.500    6.463783   26.144320    4.731865   26.144320
      75.500    6.482055   26.189661    4.728861   26.189661
      77.500    6.499875   26.227229    4.726130   26.227229
      79.500    6.517428   26.266234    4.723494   26.266234
      81.500    6.534728   26.304139    4.720973   26.304139
      83.500    6.551645   26.337689    4.718640   26.337689
      85.500    6.568349   26.372150    4.716336   26.372150
      87.500    6.584836   26.408063    4.714100   26.408063
      89.500    6.600996   26.439008    4.711819   26.439008
      91.500    6.616930   26.469051    4.709659   26.469051
      93.500    6.632679   26.501733    4.707552   26.501733
      95.500    6.648088   26.531886    4.705627   26.531886
      97.500    6.663191   26.560866    4.703820   26.560866
      99.500    6.678075   26.585348    4.702027   26.585348
     104.500    6.714655   26.644088    4.697837   26.644088
     109.500    6.750048   26.698429    4.694162   26.698429
     114.500    6.784361   26.746419    4.690814   26.746419
     119.500    6.817764   26.795015    4.688026   26.795015
     124.500    6.850227   26.840546    4.685716   26.840546
     129.500    6.881794   26.882147    4.683729   26.882147
     134.500    6.912618   26.923250    4.682022   26.923250
     139.500    6.942577   26.959930    4.680643   26.959930
     144.500    6.971790   26.998748    4.679530   26.998748
     149.500    7.000330   27.032052    4.678653   27.032052
     154.500    7.028188   27.065338    4.677982   27.065338
     159.500    7.055470   27.098551    4.677330   27.098551
     164.500    7.082072   27.128266    4.676894   27.128266
     169.500    7.108122   27.156885    4.676616   27.156885
     174.500    7.133563   27.181796    4.676293   27.181796
     179.500    7.158588   27.211183    4.676202   27.211183
     184.500    7.183090   27.238881    4.676281   27.238881
     189.500    7.207013   27.260977    4.676486   27.260977
     194.500    7.230530   27.284486    4.676793   27.284486
     199.500    7.253614   27.307903    4.677195   27.307903
     204.500    7.276272   27.330571    4.677677   27.330571
     209.500    7.298419   27.350027    4.678230   27.350027
     214.500    7.320327   27.373519    4.678852   27.373519
     219.500    7.341679   27.391798    4.679532   27.391798
     224.500    7.362593   27.424123    4.680264   27.424123
     229.500    7.382938   27.449936    4.681040   27.449936
     234.500    7.402727   27.467529    4.681858   27.467529
     239.500    7.422319   27.481107    4.682687   27.481107
     244.500    7.441726   27.482487    4.683569   27.482487
     249.500    7.461155   27.480513    4.684490   27.480513
     254.500    7.480559   27.493950    4.685439   27.493950
     259.500    7.499608   27.508783    4.686412   27.508783
     264.500    7.518243   27.538267    4.687414   27.538267
     269.500    7.536504   27.544866    4.688446   27.544866
     274.500    7.554727   27.551317    4.689504   27.551317
     279.500    7.572660   27.571642    4.690589   27.571642
     284.500    7.590100   27.590701    4.691698   27.590701
     289.500    7.607417   27.597155    4.692831   27.597155
     294.500    7.624460   27.619818    4.693972   27.619818
     299.500    7.640913   27.653383    4.695124   27.653383
     304.500    7.656766   27.669920    4.696305   27.669920
     309.500    7.672454   27.686943    4.697501   27.686943
     314.500    7.687774   27.692766    4.698705   27.692766
     319.500    7.703123   27.689017    4.699918   27.689017
     324.500    7.718564   27.686084    4.701141   27.686084
     329.500    7.734098   27.683391    4.702371   27.683391
     334.500    7.749727   27.680197    4.703610   27.680197
     339.500    7.765310   27.690197    4.704862   27.690197
     344.500    7.780526   27.712872    4.706134   27.712872
     349.500    7.795345   27.719450    4.707425   27.719450
     354.500    7.810230   27.726454    4.708724   27.726454
     359.500    7.824961   27.725337    4.710022   27.725337
     364.500    7.839587   27.748032    4.711336   27.748032
     369.500    7.853744   27.753394    4.712675   27.753394
     374.500    7.867866   27.770876    4.714018   27.770876
     379.500    7.881476   27.794622    4.715355   27.794622
     384.500    7.894684   27.819858    4.716718   27.819858
     389.500    7.907382   27.830876    4.718106   27.830876
     394.500    7.919891   27.838228    4.719489   27.838228
     399.500    7.932430   27.847435    4.720873   27.847435
     404.500    7.944749   27.839774    4.722261   27.839774
     409.500    7.957250   27.836721    4.723657   27.836721
     414.500    7.969931   27.826721    4.725058   27.826721
     419.500    7.982795   27.817504    4.726461   27.817504
     424.500    7.995799   27.820571    4.727870   27.820571
     429.500    8.008647   27.819472    4.729303   27.819472
     434.500    8.021576   27.835541    4.730755   27.835541
     439.500    8.034105   27.839528    4.732223   27.839528
     444.500    8.046627   27.847598    4.733701   27.847598
     449.500    8.059043   27.849678    4.735189   27.849678
     454.500    8.071181   27.869096    4.736685   27.869096
     459.500    8.082898   27.899252    4.738192   27.899252
     464.500    8.094051   27.913351    4.739725   27.913351
     469.500    8.104992   27.925611    4.741272   27.925611
     474.500    8.115811   27.937590    4.742811   27.937590
     479.500    8.126347   27.938799    4.744354   27.938799
     484.500    8.136881   27.941634    4.745900   27.941634
     489.500    8.147514   27.936245    4.747457   27.936245
     494.500    8.158234   27.923072    4.749028   27.923072
     499.500    8.169292   27.916358    4.750600   27.916358
     504.500    8.180520   27.902001    4.752182   27.902001
     509.500    8.191871   27.898998    4.753787   27.898998
     514.500    8.203341   27.907185    4.755424   27.907185
     519.500    8.214504   27.914337    4.757089   27.914337
     524.500    8.225601   27.921678    4.758762   27.921678
     529.500    8.236605   27.925757    4.760455   27.925757
     534.500    8.247531   27.923390    4.762157   27.923390
     539.500    8.258191   27.957616    4.763866   27.957616
     544.500    8.268285   27.975310    4.765598   27.975310
     549.500    8.278046   27.984489    4.767356   27.984489
     554.500    8.287740   27.999009    4.769123   27.999009
     559.500    8.297127   28.005217    4.770882   28.005217
     564.500    8.306402   28.003736    4.772639   28.003736
     569.500    8.315787   28.006280    4.774409   28.006280
     574.500    8.325278   27.995858    4.776183   27.995858
     579.500    8.334923   27.978566    4.777978   27.978566
     584.500    8.344914   27.971819    4.779781   27.971819
     589.500    8.355080   27.958251    4.781585   27.958251
     594.500    8.365400   27.955088    4.783437   27.955088
     599.500    8.375814   27.962078    4.785317   27.962078
     604.500    8.385986   27.966778    4.787223   27.966778
     609.500    8.396010   27.972937    4.789156   27.972937
     614.500    8.406096   27.979102    4.791090   27.979102
     619.500    8.415980   27.985144    4.793049   27.985144
     624.500    8.425545   28.009695    4.795018   28.009695
     629.500    8.434697   28.025731    4.797003   28.025731
     634.500    8.443518   28.037403    4.799035   28.037403
     639.500    8.452170   28.043587    4.801058   28.043587
     644.500    8.460713   28.054167    4.803080   28.054167
     649.500    8.469070   28.053950    4.805105   28.053950
     654.500    8.477434   28.050835    4.807126   28.050835
     659.500    8.486008   28.047029    4.809170   28.047029
     664.500    8.494721   28.034593    4.811216   28.034593
     669.500    8.503660   28.017548    4.813274   28.017548
     674.500    8.512948   28.011284    4.815339   28.011284
     679.500    8.522381   28.005058    4.817424   28.005058
     684.500    8.531902   27.995733    4.819561   27.995733
     689.500    8.541550   28.001435    4.821703   28.001435
     694.500    8.551068   28.007103    4.823861   28.007103
     699.500    8.560361   28.013099    4.826064   28.013099
     704.500    8.569674   28.022998    4.828274   28.022998
     709.500    8.578829   28.019166    4.830507   28.019166
     714.500    8.587687   28.042783    4.832748   28.042783
     719.500    8.596206   28.063736    4.835001   28.063736
     724.500    8.604407   28.080499    4.837316   28.080499
     729.500    8.612247   28.083922    4.839626   28.083922
     734.500    8.620036   28.093233    4.841919   28.093233
     739.500    8.627692   28.095561    4.844230   28.095561
     744.500    8.635314   28.095437    4.846481   28.095437
     749.500    8.642950   28.089478    4.848764   28.089478
     754.500    8.650820   28.083243    4.851084   28.083243
     759.500    8.658815   28.071320    4.853408   28.071320
     764.500    8.667052   28.056920    4.855763   28.056920
     769.500    8.675677   28.050373    4.858113   28.050373
     774.500    8.684387   28.045087    4.860486   28.045087
     779.500    8.693093   28.035231    4.862911   28.035231
     784.500    8.702019   28.034761    4.865348   28.034761
     789.500    8.710930   28.040565    4.867820   28.040565
     794.500    8.719565   28.061590    4.870317   28.061590
     799.500    8.727670   28.088934    4.872827   28.088934
     804.500    8.735398   28.101470    4.875394   28.101470
     809.500    8.742814   28.107857    4.877966   28.107857
     814.500    8.750160   28.115079    4.880510   28.115079
     819.500    8.757468   28.120347    4.883063   28.120347
     824.500    8.764654   28.120071    4.885587   28.120071
     829.500    8.771787   28.118597    4.888129   28.118597
     834.500    8.778993   28.122758    4.890691   28.122758
     839.500    8.786255   28.118863    4.893261   28.118863
     844.500    8.793582   28.103990    4.895861   28.103990
     849.500    8.801208   28.091828    4.898468   28.091828
     854.500    8.809137   28.082642    4.901070   28.082642
     859.500    8.817201   28.075916    4.903713   28.075916
     864.500    8.825357   28.070127    4.906359   28.070127
     869.500    8.833691   28.068597    4.909045   28.068597
     874.500    8.842018   28.067986    4.911768   28.067986
     879.500    8.850150   28.082208    4.914501   28.082208
     884.500    8.857913   28.116812    4.917270   28.116812
     889.500    8.865092   28.134775    4.920080   28.134775
     894.500    8.871947   28.140957    4.922887   28.140957
     899.500    8.878670   28.143499    4.925696   28.143499
     904.500    8.885448   28.150873    4.928474   28.150873
     909.500    8.892152   28.154704    4.931258   28.154704
     914.500    8.898696   28.151546    4.934058   28.151546
     919.500    8.905315   28.152326    4.936855   28.152326
     924.500    8.912000   28.146187    4.939683   28.146187
     929.500    8.918852   28.134083    4.942523   28.134083
     934.500    8.925887   28.120194    4.945345   28.120194
     939.500    8.933334   28.114276    4.948185   28.114276
     944.500    8.940853   28.108154    4.951011   28.108154
     949.500    8.948469   28.098635    4.953884   28.098635
     954.500    8.956202   28.096711    4.956810   28.096711
     959.500    8.964042   28.097503    4.959736   28.097503
     964.500    8.971830   28.096680    4.962687   28.096680
     969.500    8.979242   28.127326    4.965668   28.127326
     974.500    8.986158   28.150144    4.968666   28.150144
     979.500    8.992743   28.167888    4.971739   28.167888
     984.500    8.998972   28.177285    4.974793   28.177285
     989.500    9.005087   28.179604    4.977821   28.179604
     994.500    9.011187   28.184307    4.980852   28.184307
     999.500    9.017231   28.184344    4.983853   28.184344
    1019.500    9.041352   28.181981    4.996010   28.181981
    1039.500    9.067462   28.140596    5.008342   28.140596
    1059.500    9.095894   28.129298    5.020959   28.129298
    1079.500    9.121449   28.199086    5.033934   28.199086
    1099.500    9.143421   28.216008    5.046958   28.216008
    1119.500    9.165150   28.214906    5.059978   28.214906
    1139.500    9.186983   28.214581    5.073169   28.214581
    1159.500    9.208751   28.215932    5.086481   28.215932
    1179.500    9.230333   28.218792    5.099918   28.218792
    1199.500    9.251647   28.223756    5.113468   28.223756
    1219.500    9.272561   28.229645    5.127096   28.229645
    1239.500    9.292977   28.236880    5.140840   28.236880
    1259.500    9.312856   28.243274    5.154653   28.243274
    1279.500    9.332230   28.251472    5.168560   28.251472
    1299.500    9.351143   28.259705    5.182562   28.259705
    1319.500    9.369295   28.275091    5.196643   28.275091
    1339.500    9.386168   28.290446    5.210830   28.290446
    1359.500    9.402343   28.303656    5.224978   28.303656
    1379.500    9.417973   28.306904    5.239253   28.306904
    1399.500    9.433295   28.311667    5.253662   28.311667
    1419.500    9.448404   28.311910    5.268190   28.311910
    1439.500    9.463380   28.311034    5.282837   28.311034
    1459.500    9.478285   28.313739    5.297585   28.313739
    1479.500    9.492971   28.310546    5.312436   28.310546
    1499.500    9.507769   28.314747    5.327386   28.314747
    1519.500    9.522515   28.316371    5.342436   28.316371
    1539.500    9.537168   28.316365    5.357577   28.316365
    1559.500    9.551822   28.319381    5.372811   28.319381
    1579.500    9.566430   28.322044    5.388140   28.322044
    1599.500    9.580927   28.319385    5.403558   28.319385
    1619.500    9.595416   28.317958    5.419069   28.317958
    1639.500    9.609893   28.319049    5.434667   28.319049
    1659.500    9.624281   28.318253    5.450351   28.318253
    1679.500    9.638661   28.319098    5.466117   28.319098
    1699.500    9.653050   28.321808    5.481968   28.321808
    1719.500    9.667327   28.321996    5.497895   28.321996
    1739.500    9.681589   28.325026    5.513901   28.325026
    1759.500    9.695771   28.327857    5.529981   28.327857
    1779.500    9.709827   28.325066    5.546130   28.325066
    1799.500    9.723859   28.324012    5.562352   28.324012
    1819.500    9.737852   28.324216    5.578641   28.324216
    1839.500    9.751765   28.324934    5.594995   28.324934
    1859.500    9.765643   28.327292    5.611410   28.327292
    1879.500    9.779513   28.328682    5.627887   28.328682
    1899.500    9.793277   28.329043    5.644420   28.329043
    1919.500    9.806997   28.331037    5.661010   28.331037
    1939.500    9.820650   28.334386    5.677656   28.334386
    1959.500    9.834205   28.333445    5.694352   28.333445
    1979.500    9.847715   28.332789    5.711102   28.332789
    1999.500    9.861124   28.332306    5.727894   28.332306
    2049.500    9.894374   28.333762    5.770060   28.333762
    2099.500    9.927364   28.338766    5.812495   28.338766
    2149.500    9.960023   28.341825    5.855153   28.341825
    2199.500    9.992217   28.342546    5.898000   28.342546
    2249.500   10.024045   28.343752    5.941026   28.343752
    2299.500   10.055438   28.345291    5.984195   28.345291
    2349.500   10.086469   28.344932    6.027483   28.344932
    2399.500   10.117128   28.347545    6.070863   28.347545
    2449.500   10.147461   28.351584    6.114323   28.351584
    2499.500   10.177414   28.354926    6.157833   28.354926
    2549.500   10.207006   28.354949    6.201381   28.354949
    2599.500   10.236244   28.356453    6.244948   28.356453
    2649.500   10.265275   28.359145    6.288503   28.359145
    2699.500   10.293995   28.362355    6.332050   28.362355
    2749.500   10.322348   28.360784    6.375565   28.360784
    2799.500   10.350512   28.366116    6.419028   28.366116
    2849.500   10.378300   28.368748    6.462436   28.368748
    2899.500   10.405729   28.366351    6.505762   28.366351
    2949.500   10.433321   28.363969    6.548949   28.363969
    2999.500   10.461329   28.364605    6.592120   28.364605
    3049.500   10.489038   28.365136    6.635220   28.365136
    3099.500   10.516436   28.367235    6.678202   28.367235
    3149.500   10.543513   28.368102    6.721067   28.368102
    3199.500   10.570258   28.368970    6.763807   28.368970
    3249.500   10.596721   28.374410    6.806411   28.374410
    3299.500   10.622780   28.373290    6.848886   28.373290
    3349.500   10.648631   28.374875    6.891223   28.374875
    3399.500   10.674101   28.377517    6.933403   28.377517
    3449.500   10.699537   28.381932    6.975428   28.381932
    3499.500   10.724565   28.379598    7.017300   28.379598
    3549.500   10.749453   28.382696    7.059007   28.382696
    3599.500   10.774101   28.386268    7.100519   28.386268
    3649.500   10.798488   28.382675    7.141865   28.382675
    3699.500   10.822739   28.388471    7.183032   28.388471
    3749.500   10.846568   28.386869    7.224011   28.386869
    3799.500   10.870213   28.385491    7.264795   28.385491
