 % time (yr) / global CaCO3_13C flux (mol yr-1) / global CaCO3_13C delta (o/oo)
       0.500  0.3676688E+13         4.192
       1.500  0.3323346E+13         4.987
       2.500  0.3010931E+13         5.200
       3.500  0.2744800E+13         5.275
       4.500  0.2528039E+13         5.270
       5.500  0.2356072E+13         5.232
       6.500  0.2219988E+13         5.188
       7.500  0.2110172E+13         5.152
       8.500  0.2018984E+13         5.125
       9.500  0.1942204E+13         5.105
      10.500  0.1877030E+13         5.084
      11.500  0.1821780E+13         5.060
      12.500  0.1774863E+13         5.033
      13.500  0.1732566E+13         5.004
      14.500  0.1695079E+13         4.974
      15.500  0.1662314E+13         4.944
      16.500  0.1634764E+13         4.914
      17.500  0.1610922E+13         4.884
      18.500  0.1589149E+13         4.856
      19.500  0.1570085E+13         4.828
      21.500  0.1540796E+13         4.775
      23.500  0.1522290E+13         4.727
      25.500  0.1506531E+13         4.686
      27.500  0.1493934E+13         4.650
      29.500  0.1485405E+13         4.618
      31.500  0.1481019E+13         4.587
      33.500  0.1477800E+13         4.561
      35.500  0.1474214E+13         4.538
      37.500  0.1471846E+13         4.518
      39.500  0.1469128E+13         4.498
      41.500  0.1468044E+13         4.479
      43.500  0.1467129E+13         4.460
      45.500  0.1466977E+13         4.440
      47.500  0.1469398E+13         4.420
      49.500  0.1471813E+13         4.401
      51.500  0.1474965E+13         4.382
      53.500  0.1477566E+13         4.365
      55.500  0.1482235E+13         4.348
      57.500  0.1486430E+13         4.332
      59.500  0.1491917E+13         4.316
      61.500  0.1498106E+13         4.301
      63.500  0.1503289E+13         4.286
      65.500  0.1509133E+13         4.273
      67.500  0.1513944E+13         4.260
      69.500  0.1520410E+13         4.247
      71.500  0.1526840E+13         4.236
      73.500  0.1532981E+13         4.225
      75.500  0.1538674E+13         4.215
      77.500  0.1544770E+13         4.206
      79.500  0.1550938E+13         4.197
      81.500  0.1557070E+13         4.188
      83.500  0.1563807E+13         4.180
      85.500  0.1570672E+13         4.172
      87.500  0.1577251E+13         4.164
      89.500  0.1583649E+13         4.157
      91.500  0.1590850E+13         4.150
      93.500  0.1598989E+13         4.143
      95.500  0.1605847E+13         4.137
      97.500  0.1612473E+13         4.131
      99.500  0.1617634E+13         4.125
     104.500  0.1633915E+13         4.110
     109.500  0.1648433E+13         4.097
     114.500  0.1662032E+13         4.084
     119.500  0.1675815E+13         4.073
     124.500  0.1690496E+13         4.062
     129.500  0.1704395E+13         4.052
     134.500  0.1718529E+13         4.042
     139.500  0.1732528E+13         4.033
     144.500  0.1745183E+13         4.024
     149.500  0.1759062E+13         4.016
     154.500  0.1770419E+13         4.008
     159.500  0.1783848E+13         4.001
     164.500  0.1795075E+13         3.994
     169.500  0.1806647E+13         3.988
     174.500  0.1819601E+13         3.980
     179.500  0.1830351E+13         3.975
     184.500  0.1841267E+13         3.969
     189.500  0.1851524E+13         3.964
     194.500  0.1862762E+13         3.959
     199.500  0.1875723E+13         3.953
     204.500  0.1884285E+13         3.949
     209.500  0.1894250E+13         3.944
     214.500  0.1904927E+13         3.940
     219.500  0.1912710E+13         3.937
     224.500  0.1923680E+13         3.932
     229.500  0.1934966E+13         3.928
     234.500  0.1942632E+13         3.924
     239.500  0.1950752E+13         3.920
     244.500  0.1957686E+13         3.917
     249.500  0.1965220E+13         3.914
     254.500  0.1973777E+13         3.911
     259.500  0.1981248E+13         3.909
     264.500  0.1991297E+13         3.906
     269.500  0.1997505E+13         3.903
     274.500  0.2004002E+13         3.899
     279.500  0.2011693E+13         3.898
     284.500  0.2018866E+13         3.895
     289.500  0.2024834E+13         3.893
     294.500  0.2033532E+13         3.889
     299.500  0.2042481E+13         3.887
     304.500  0.2049629E+13         3.884
     309.500  0.2055515E+13         3.882
     314.500  0.2061790E+13         3.880
     319.500  0.2066299E+13         3.878
     324.500  0.2071169E+13         3.876
     329.500  0.2076477E+13         3.874
     334.500  0.2081611E+13         3.873
     339.500  0.2085972E+13         3.873
     344.500  0.2094161E+13         3.871
     349.500  0.2098423E+13         3.869
     354.500  0.2103576E+13         3.866
     359.500  0.2107070E+13         3.865
     364.500  0.2111916E+13         3.865
     369.500  0.2116666E+13         3.862
     374.500  0.2121336E+13         3.861
     379.500  0.2130022E+13         3.858
     384.500  0.2136360E+13         3.855
     389.500  0.2141283E+13         3.853
     394.500  0.2146605E+13         3.852
     399.500  0.2149547E+13         3.851
     404.500  0.2153629E+13         3.850
     409.500  0.2157888E+13         3.849
     414.500  0.2160757E+13         3.848
     419.500  0.2163644E+13         3.848
     424.500  0.2168210E+13         3.847
     429.500  0.2171039E+13         3.847
     434.500  0.2175165E+13         3.846
     439.500  0.2179402E+13         3.845
     444.500  0.2181650E+13         3.844
     449.500  0.2184020E+13         3.843
     454.500  0.2187955E+13         3.841
     459.500  0.2193834E+13         3.839
     464.500  0.2199031E+13         3.837
     469.500  0.2201949E+13         3.836
     474.500  0.2204970E+13         3.835
     479.500  0.2208856E+13         3.834
     484.500  0.2213327E+13         3.832
     489.500  0.2216812E+13         3.832
     494.500  0.2217145E+13         3.831
     499.500  0.2218828E+13         3.831
     504.500  0.2220710E+13         3.832
     509.500  0.2223526E+13         3.832
     514.500  0.2226046E+13         3.832
     519.500  0.2229083E+13         3.832
     524.500  0.2231738E+13         3.830
     529.500  0.2236111E+13         3.829
     534.500  0.2235921E+13         3.829
     539.500  0.2241512E+13         3.826
     544.500  0.2245426E+13         3.825
     549.500  0.2248417E+13         3.823
     554.500  0.2251996E+13         3.822
     559.500  0.2255286E+13         3.821
     564.500  0.2258100E+13         3.821
     569.500  0.2260867E+13         3.820
     574.500  0.2261623E+13         3.821
     579.500  0.2261814E+13         3.821
     584.500  0.2263235E+13         3.821
     589.500  0.2265251E+13         3.822
     594.500  0.2267618E+13         3.822
     599.500  0.2269589E+13         3.823
     604.500  0.2273122E+13         3.821
     609.500  0.2276070E+13         3.820
     614.500  0.2275807E+13         3.821
     619.500  0.2278603E+13         3.819
     624.500  0.2282056E+13         3.818
     629.500  0.2286680E+13         3.816
     634.500  0.2287660E+13         3.815
     639.500  0.2291609E+13         3.813
     644.500  0.2294996E+13         3.813
     649.500  0.2297961E+13         3.812
     654.500  0.2299281E+13         3.812
     659.500  0.2300213E+13         3.812
     664.500  0.2300595E+13         3.813
     669.500  0.2300655E+13         3.813
     674.500  0.2302264E+13         3.814
     679.500  0.2302949E+13         3.815
     684.500  0.2303046E+13         3.815
     689.500  0.2305051E+13         3.815
     694.500  0.2308121E+13         3.814
     699.500  0.2310305E+13         3.813
     704.500  0.2310966E+13         3.813
     709.500  0.2311724E+13         3.812
     714.500  0.2315015E+13         3.810
     719.500  0.2318657E+13         3.809
     724.500  0.2320524E+13         3.808
     729.500  0.2321576E+13         3.808
     734.500  0.2324851E+13         3.806
     739.500  0.2328089E+13         3.805
     744.500  0.2329387E+13         3.806
     749.500  0.2331674E+13         3.805
     754.500  0.2331104E+13         3.805
     759.500  0.2331164E+13         3.806
     764.500  0.2332163E+13         3.805
     769.500  0.2332302E+13         3.807
     774.500  0.2333465E+13         3.807
     779.500  0.2333872E+13         3.808
     784.500  0.2332899E+13         3.808
     789.500  0.2334862E+13         3.808
     794.500  0.2337740E+13         3.807
     799.500  0.2340487E+13         3.805
     804.500  0.2343011E+13         3.804
     809.500  0.2344171E+13         3.803
     814.500  0.2346209E+13         3.802
     819.500  0.2347928E+13         3.801
     824.500  0.2349927E+13         3.800
     829.500  0.2352054E+13         3.799
     834.500  0.2351358E+13         3.801
     839.500  0.2353040E+13         3.800
     844.500  0.2352869E+13         3.800
     849.500  0.2352609E+13         3.801
     854.500  0.2352710E+13         3.802
     859.500  0.2353522E+13         3.802
     864.500  0.2352045E+13         3.803
     869.500  0.2352312E+13         3.802
     874.500  0.2353276E+13         3.803
     879.500  0.2356102E+13         3.801
     884.500  0.2359226E+13         3.799
     889.500  0.2361040E+13         3.798
     894.500  0.2363010E+13         3.796
     899.500  0.2365078E+13         3.794
     904.500  0.2365825E+13         3.794
     909.500  0.2367468E+13         3.794
     914.500  0.2367329E+13         3.794
     919.500  0.2369187E+13         3.794
     924.500  0.2369987E+13         3.794
     929.500  0.2369684E+13         3.794
     934.500  0.2367808E+13         3.794
     939.500  0.2368114E+13         3.795
     944.500  0.2368631E+13         3.796
     949.500  0.2367266E+13         3.797
     954.500  0.2367962E+13         3.796
     959.500  0.2368610E+13         3.796
     964.500  0.2368141E+13         3.796
     969.500  0.2371228E+13         3.794
     974.500  0.2374140E+13         3.792
     979.500  0.2375919E+13         3.790
     984.500  0.2376082E+13         3.789
     989.500  0.2378594E+13         3.787
     994.500  0.2379932E+13         3.787
     999.500  0.2380879E+13         3.787
    1019.500  0.2384353E+13         3.786
    1039.500  0.2381251E+13         3.789
    1059.500  0.2379434E+13         3.790
    1079.500  0.2386664E+13         3.782
    1099.500  0.2391469E+13         3.779
    1119.500  0.2395136E+13         3.778
    1139.500  0.2398181E+13         3.778
    1159.500  0.2399236E+13         3.777
    1179.500  0.2400772E+13         3.776
    1199.500  0.2401996E+13         3.774
    1219.500  0.2402686E+13         3.773
    1239.500  0.2403448E+13         3.772
    1259.500  0.2404770E+13         3.770
    1279.500  0.2403909E+13         3.770
    1299.500  0.2405640E+13         3.768
    1319.500  0.2408306E+13         3.764
    1339.500  0.2410802E+13         3.759
    1359.500  0.2411316E+13         3.757
    1379.500  0.2409873E+13         3.757
    1399.500  0.2410708E+13         3.755
    1419.500  0.2410894E+13         3.753
    1439.500  0.2410374E+13         3.753
    1459.500  0.2410510E+13         3.751
    1479.500  0.2409237E+13         3.751
    1499.500  0.2407921E+13         3.751
    1519.500  0.2408289E+13         3.749
    1539.500  0.2406983E+13         3.749
    1559.500  0.2406690E+13         3.748
    1579.500  0.2405547E+13         3.748
    1599.500  0.2404978E+13         3.746
    1619.500  0.2403458E+13         3.746
    1639.500  0.2403684E+13         3.744
    1659.500  0.2402107E+13         3.745
    1679.500  0.2400640E+13         3.745
    1699.500  0.2400815E+13         3.743
    1719.500  0.2399189E+13         3.743
    1739.500  0.2398865E+13         3.742
    1759.500  0.2397721E+13         3.742
    1779.500  0.2397204E+13         3.741
    1799.500  0.2395944E+13         3.740
    1819.500  0.2396633E+13         3.739
    1839.500  0.2395143E+13         3.738
    1859.500  0.2393557E+13         3.739
    1879.500  0.2393488E+13         3.738
    1899.500  0.2393096E+13         3.737
    1919.500  0.2392043E+13         3.737
    1939.500  0.2391975E+13         3.736
    1959.500  0.2391621E+13         3.735
    1979.500  0.2391109E+13         3.735
    1999.500  0.2389680E+13         3.734
    2049.500  0.2388065E+13         3.733
    2099.500  0.2387636E+13         3.730
    2149.500  0.2386726E+13         3.729
    2199.500  0.2386510E+13         3.727
    2249.500  0.2384262E+13         3.727
    2299.500  0.2382970E+13         3.726
    2349.500  0.2382901E+13         3.723
    2399.500  0.2382178E+13         3.723
    2449.500  0.2381595E+13         3.720
    2499.500  0.2379274E+13         3.720
    2549.500  0.2379812E+13         3.718
    2599.500  0.2379835E+13         3.715
    2649.500  0.2378383E+13         3.716
    2699.500  0.2377670E+13         3.714
    2749.500  0.2377807E+13         3.713
    2799.500  0.2376196E+13         3.712
    2849.500  0.2376410E+13         3.709
    2899.500  0.2378443E+13         3.707
    2949.500  0.2376913E+13         3.706
    2999.500  0.2375615E+13         3.705
    3049.500  0.2375836E+13         3.704
    3099.500  0.2376869E+13         3.702
    3149.500  0.2376956E+13         3.701
    3199.500  0.2376770E+13         3.700
    3249.500  0.2377007E+13         3.699
    3299.500  0.2377296E+13         3.696
    3349.500  0.2377111E+13         3.696
    3399.500  0.2376457E+13         3.694
    3449.500  0.2377602E+13         3.692
    3499.500  0.2378783E+13         3.690
    3549.500  0.2377012E+13         3.690
    3599.500  0.2376524E+13         3.689
    3649.500  0.2378120E+13         3.688
    3699.500  0.2378032E+13         3.686
    3749.500  0.2378267E+13         3.684
    3799.500  0.2379315E+13         3.681
    3849.500  0.2378145E+13         3.681
    3899.500  0.2377560E+13         3.681
    3949.500  0.2379239E+13         3.678
    3999.500  0.2379298E+13         3.677
    4049.500  0.2378613E+13         3.676
    4099.500  0.2378705E+13         3.675
    4149.500  0.2379682E+13         3.673
    4199.500  0.2380559E+13         3.672
    4249.500  0.2382620E+13         3.668
    4299.500  0.2381516E+13         3.668
    4349.500  0.2381902E+13         3.667
    4399.500  0.2382516E+13         3.665
    4449.500  0.2382127E+13         3.664
    4499.500  0.2384105E+13         3.662
    4549.500  0.2384232E+13         3.660
    4599.500  0.2384965E+13         3.660
    4649.500  0.2385757E+13         3.659
    4699.500  0.2387802E+13         3.656
    4749.500  0.2387240E+13         3.655
    4799.500  0.2387560E+13         3.654
    4849.500  0.2387489E+13         3.653
    4899.500  0.2389662E+13         3.651
    4949.500  0.2389090E+13         3.651
    4999.500  0.2391038E+13         3.649
    5049.500  0.2390711E+13         3.648
    5099.500  0.2392127E+13         3.646
    5149.500  0.2392588E+13         3.644
    5199.500  0.2394407E+13         3.643
    5249.500  0.2393966E+13         3.643
    5299.500  0.2396076E+13         3.641
    5349.500  0.2395894E+13         3.640
    5399.500  0.2398006E+13         3.638
    5449.500  0.2397776E+13         3.637
    5499.500  0.2398514E+13         3.636
    5549.500  0.2399755E+13         3.635
    5599.500  0.2401318E+13         3.632
    5649.500  0.2401602E+13         3.633
    5699.500  0.2401827E+13         3.631
    5749.500  0.2404046E+13         3.629
    5799.500  0.2404189E+13         3.629
    5849.500  0.2405499E+13         3.626
    5899.500  0.2406381E+13         3.626
    5949.500  0.2406156E+13         3.625
    5999.500  0.2407788E+13         3.623
    6049.500  0.2408824E+13         3.623
    6099.500  0.2408630E+13         3.622
    6149.500  0.2410924E+13         3.619
    6199.500  0.2412052E+13         3.617
    6249.500  0.2412251E+13         3.618
    6299.500  0.2413904E+13         3.616
    6349.500  0.2414659E+13         3.615
    6399.500  0.2415762E+13         3.614
    6449.500  0.2416010E+13         3.613
    6499.500  0.2417173E+13         3.611
    6549.500  0.2418658E+13         3.610
    6599.500  0.2419664E+13         3.609
    6649.500  0.2420619E+13         3.608
    6699.500  0.2421142E+13         3.607
    6749.500  0.2422591E+13         3.605
    6799.500  0.2423756E+13         3.605
    6849.500  0.2423960E+13         3.604
    6899.500  0.2427484E+13         3.601
    6949.500  0.2426901E+13         3.600
    6999.500  0.2428118E+13         3.599
    7049.500  0.2428645E+13         3.600
    7099.500  0.2429523E+13         3.599
    7149.500  0.2432514E+13         3.596
    7199.500  0.2431998E+13         3.595
    7249.500  0.2433888E+13         3.595
    7299.500  0.2434433E+13         3.594
    7349.500  0.2435692E+13         3.593
    7399.500  0.2436124E+13         3.592
    7449.500  0.2439739E+13         3.589
    7499.500  0.2439011E+13         3.588
    7549.500  0.2441263E+13         3.588
    7599.500  0.2441003E+13         3.588
    7649.500  0.2441969E+13         3.586
    7699.500  0.2443553E+13         3.585
    7749.500  0.2444388E+13         3.584
    7799.500  0.2444942E+13         3.583
    7849.500  0.2446830E+13         3.581
    7899.500  0.2447576E+13         3.581
    7949.500  0.2449201E+13         3.580
    7999.500  0.2450173E+13         3.579
    8049.500  0.2451778E+13         3.578
    8099.500  0.2452747E+13         3.578
    8149.500  0.2453617E+13         3.576
    8199.500  0.2454274E+13         3.575
    8249.500  0.2455035E+13         3.575
    8299.500  0.2456293E+13         3.574
    8349.500  0.2457965E+13         3.572
    8399.500  0.2458126E+13         3.573
    8449.500  0.2460151E+13         3.571
    8499.500  0.2461064E+13         3.570
    8549.500  0.2461314E+13         3.571
    8599.500  0.2462320E+13         3.570
    8649.500  0.2463411E+13         3.568
    8699.500  0.2464156E+13         3.567
    8749.500  0.2464871E+13         3.567
    8799.500  0.2466354E+13         3.566
    8849.500  0.2466585E+13         3.566
    8899.500  0.2468301E+13         3.564
    8949.500  0.2468997E+13         3.564
    8999.500  0.2469862E+13         3.563
    9049.500  0.2470644E+13         3.562
    9099.500  0.2471216E+13         3.561
    9149.500  0.2472457E+13         3.561
    9199.500  0.2473950E+13         3.560
    9249.500  0.2473971E+13         3.559
    9299.500  0.2474387E+13         3.559
    9349.500  0.2475082E+13         3.558
    9399.500  0.2476786E+13         3.557
    9449.500  0.2477969E+13         3.556
    9499.500  0.2478272E+13         3.556
    9549.500  0.2478681E+13         3.556
    9599.500  0.2479376E+13         3.555
    9649.500  0.2479490E+13         3.554
    9699.500  0.2481273E+13         3.553
    9749.500  0.2481568E+13         3.552
    9799.500  0.2481753E+13         3.552
    9849.500  0.2483775E+13         3.551
    9899.500  0.2484354E+13         3.550
    9949.500  0.2484251E+13         3.551
    9999.500  0.2485600E+13         3.549
   10199.500  0.2487101E+13         3.548
   10399.500  0.2489902E+13         3.545
   10599.500  0.2491645E+13         3.543
   10799.500  0.2495055E+13         3.541
   10999.500  0.2497409E+13         3.539
   11199.500  0.2498894E+13         3.538
   11399.500  0.2501456E+13         3.536
   11599.500  0.2503374E+13         3.534
   11799.500  0.2505359E+13         3.534
   11999.500  0.2508158E+13         3.532
   12199.500  0.2509747E+13         3.530
   12399.500  0.2511638E+13         3.529
   12599.500  0.2514436E+13         3.528
   12799.500  0.2516903E+13         3.526
   12999.500  0.2519077E+13         3.525
   13199.500  0.2520810E+13         3.525
   13399.500  0.2523896E+13         3.524
   13599.500  0.2525622E+13         3.523
   13799.500  0.2528262E+13         3.522
   13999.500  0.2529764E+13         3.520
   14199.500  0.2532346E+13         3.520
   14399.500  0.2535116E+13         3.520
   14599.500  0.2537311E+13         3.518
   14799.500  0.2539690E+13         3.518
