 % time (yr) / global CaCO3 flux (mol yr-1) / global CaCO3 density (mol m-2 yr-1)
       0.500  0.1718018E+15  0.4606124E+00
       1.500  0.1554334E+15  0.4167276E+00
       2.500  0.1407991E+15  0.3774922E+00
       3.500  0.1283146E+15  0.3440202E+00
       4.500  0.1181407E+15  0.3167433E+00
       5.500  0.1100864E+15  0.2951491E+00
       6.500  0.1037340E+15  0.2781179E+00
       7.500  0.9861118E+14  0.2643833E+00
       8.500  0.9436116E+14  0.2529887E+00
       9.500  0.9080610E+14  0.2434574E+00
      10.500  0.8782027E+14  0.2354522E+00
      11.500  0.8529165E+14  0.2286728E+00
      12.500  0.8313075E+14  0.2228792E+00
      13.500  0.8115786E+14  0.2175898E+00
      14.500  0.7940861E+14  0.2128999E+00
      15.500  0.7787604E+14  0.2087910E+00
      16.500  0.7658999E+14  0.2053430E+00
      17.500  0.7547862E+14  0.2023634E+00
      18.500  0.7446777E+14  0.1996532E+00
      19.500  0.7358586E+14  0.1972887E+00
      21.500  0.7224642E+14  0.1936976E+00
      23.500  0.7145831E+14  0.1915846E+00
      25.500  0.7074229E+14  0.1896649E+00
      27.500  0.7015985E+14  0.1881034E+00
      29.500  0.6975526E+14  0.1870186E+00
      31.500  0.6955506E+14  0.1864819E+00
      33.500  0.6940022E+14  0.1860668E+00
      35.500  0.6922259E+14  0.1855905E+00
      37.500  0.6909524E+14  0.1852491E+00
      39.500  0.6895067E+14  0.1848615E+00
      41.500  0.6887762E+14  0.1846656E+00
      43.500  0.6881014E+14  0.1844847E+00
      45.500  0.6877743E+14  0.1843970E+00
      47.500  0.6886417E+14  0.1846296E+00
      49.500  0.6895346E+14  0.1848690E+00
      51.500  0.6907583E+14  0.1851970E+00
      53.500  0.6917517E+14  0.1854634E+00
      55.500  0.6936960E+14  0.1859847E+00
      57.500  0.6954307E+14  0.1864497E+00
      59.500  0.6977428E+14  0.1870696E+00
      61.500  0.7004879E+14  0.1878056E+00
      63.500  0.7027563E+14  0.1884138E+00
      65.500  0.7052731E+14  0.1890886E+00
      67.500  0.7073734E+14  0.1896517E+00
      69.500  0.7101867E+14  0.1904059E+00
      71.500  0.7130674E+14  0.1911783E+00
      73.500  0.7157555E+14  0.1918990E+00
      75.500  0.7183056E+14  0.1925827E+00
      77.500  0.7209882E+14  0.1933019E+00
      79.500  0.7237395E+14  0.1940395E+00
      81.500  0.7265476E+14  0.1947924E+00
      83.500  0.7295573E+14  0.1955993E+00
      85.500  0.7326497E+14  0.1964284E+00
      87.500  0.7357004E+14  0.1972463E+00
      89.500  0.7385624E+14  0.1980136E+00
      91.500  0.7418926E+14  0.1989065E+00
      93.500  0.7455477E+14  0.1998865E+00
      95.500  0.7487314E+14  0.2007400E+00
      97.500  0.7517394E+14  0.2015465E+00
      99.500  0.7541198E+14  0.2021847E+00
     104.500  0.7615881E+14  0.2041870E+00
     109.500  0.7683218E+14  0.2059923E+00
     114.500  0.7746730E+14  0.2076952E+00
     119.500  0.7810657E+14  0.2094091E+00
     124.500  0.7879503E+14  0.2112549E+00
     129.500  0.7943858E+14  0.2129803E+00
     134.500  0.8009467E+14  0.2147393E+00
     139.500  0.8074929E+14  0.2164944E+00
     144.500  0.8134772E+14  0.2180988E+00
     149.500  0.8199030E+14  0.2198216E+00
     154.500  0.8252368E+14  0.2212517E+00
     159.500  0.8314444E+14  0.2229160E+00
     164.500  0.8367310E+14  0.2243333E+00
     169.500  0.8421234E+14  0.2257791E+00
     174.500  0.8481511E+14  0.2273951E+00
     179.500  0.8531596E+14  0.2287379E+00
     184.500  0.8582941E+14  0.2301146E+00
     189.500  0.8630642E+14  0.2313934E+00
     194.500  0.8683483E+14  0.2328101E+00
     199.500  0.8743335E+14  0.2344148E+00
     204.500  0.8783360E+14  0.2354879E+00
     209.500  0.8829867E+14  0.2367348E+00
     214.500  0.8879498E+14  0.2380654E+00
     219.500  0.8916060E+14  0.2390457E+00
     224.500  0.8968433E+14  0.2404499E+00
     229.500  0.9022447E+14  0.2418980E+00
     234.500  0.9058183E+14  0.2428561E+00
     239.500  0.9096046E+14  0.2438712E+00
     244.500  0.9127420E+14  0.2447124E+00
     249.500  0.9161325E+14  0.2456214E+00
     254.500  0.9201810E+14  0.2467068E+00
     259.500  0.9236260E+14  0.2476305E+00
     264.500  0.9284435E+14  0.2489221E+00
     269.500  0.9312994E+14  0.2496878E+00
     274.500  0.9342700E+14  0.2504842E+00
     279.500  0.9379560E+14  0.2514724E+00
     284.500  0.9412770E+14  0.2523628E+00
     289.500  0.9439857E+14  0.2530890E+00
     294.500  0.9481947E+14  0.2542175E+00
     299.500  0.9525646E+14  0.2553891E+00
     304.500  0.9561307E+14  0.2563452E+00
     309.500  0.9589040E+14  0.2570888E+00
     314.500  0.9618758E+14  0.2578855E+00
     319.500  0.9638763E+14  0.2584218E+00
     324.500  0.9660981E+14  0.2590175E+00
     329.500  0.9685106E+14  0.2596643E+00
     334.500  0.9707854E+14  0.2602742E+00
     339.500  0.9728481E+14  0.2608273E+00
     344.500  0.9768656E+14  0.2619044E+00
     349.500  0.9789143E+14  0.2624537E+00
     354.500  0.9812111E+14  0.2630694E+00
     359.500  0.9826576E+14  0.2634573E+00
     364.500  0.9850863E+14  0.2641084E+00
     369.500  0.9871684E+14  0.2646666E+00
     374.500  0.9894244E+14  0.2652715E+00
     379.500  0.9938424E+14  0.2664560E+00
     384.500  0.9969466E+14  0.2672882E+00
     389.500  0.9993784E+14  0.2679402E+00
     394.500  0.1001913E+15  0.2686197E+00
     399.500  0.1003285E+15  0.2689875E+00
     404.500  0.1005118E+15  0.2694791E+00
     409.500  0.1007145E+15  0.2700225E+00
     414.500  0.1008408E+15  0.2703611E+00
     419.500  0.1009546E+15  0.2706661E+00
     424.500  0.1011678E+15  0.2712377E+00
     429.500  0.1012950E+15  0.2715787E+00
     434.500  0.1015059E+15  0.2721444E+00
     439.500  0.1017080E+15  0.2726861E+00
     444.500  0.1018174E+15  0.2729794E+00
     449.500  0.1018934E+15  0.2731831E+00
     454.500  0.1020944E+15  0.2737221E+00
     459.500  0.1023921E+15  0.2745203E+00
     464.500  0.1026582E+15  0.2752337E+00
     469.500  0.1027953E+15  0.2756014E+00
     474.500  0.1029484E+15  0.2760116E+00
     479.500  0.1031394E+15  0.2765238E+00
     484.500  0.1033620E+15  0.2771205E+00
     489.500  0.1035103E+15  0.2775182E+00
     494.500  0.1035133E+15  0.2775262E+00
     499.500  0.1035747E+15  0.2776908E+00
     504.500  0.1036417E+15  0.2778706E+00
     509.500  0.1037724E+15  0.2782210E+00
     514.500  0.1038869E+15  0.2785280E+00
     519.500  0.1040467E+15  0.2789564E+00
     524.500  0.1041792E+15  0.2793116E+00
     529.500  0.1043779E+15  0.2798444E+00
     534.500  0.1043412E+15  0.2797460E+00
     539.500  0.1046267E+15  0.2805114E+00
     544.500  0.1048343E+15  0.2810681E+00
     549.500  0.1049841E+15  0.2814696E+00
     554.500  0.1051568E+15  0.2819325E+00
     559.500  0.1053400E+15  0.2824238E+00
     564.500  0.1054679E+15  0.2827668E+00
     569.500  0.1055960E+15  0.2831103E+00
     574.500  0.1056155E+15  0.2831625E+00
     579.500  0.1056017E+15  0.2831254E+00
     584.500  0.1056603E+15  0.2832826E+00
     589.500  0.1057298E+15  0.2834689E+00
     594.500  0.1058339E+15  0.2837479E+00
     599.500  0.1059311E+15  0.2840086E+00
     604.500  0.1061194E+15  0.2845134E+00
     609.500  0.1062704E+15  0.2849181E+00
     614.500  0.1062361E+15  0.2848264E+00
     619.500  0.1063663E+15  0.2851753E+00
     624.500  0.1065427E+15  0.2856484E+00
     629.500  0.1067833E+15  0.2862934E+00
     634.500  0.1068306E+15  0.2864202E+00
     639.500  0.1070292E+15  0.2869526E+00
     644.500  0.1072042E+15  0.2874218E+00
     649.500  0.1073582E+15  0.2878348E+00
     654.500  0.1074168E+15  0.2879919E+00
     659.500  0.1074474E+15  0.2880738E+00
     664.500  0.1074545E+15  0.2880930E+00
     669.500  0.1074300E+15  0.2880273E+00
     674.500  0.1074941E+15  0.2881990E+00
     679.500  0.1075117E+15  0.2882464E+00
     684.500  0.1074959E+15  0.2882039E+00
     689.500  0.1075944E+15  0.2884678E+00
     694.500  0.1077641E+15  0.2889230E+00
     699.500  0.1078757E+15  0.2892221E+00
     704.500  0.1079007E+15  0.2892892E+00
     709.500  0.1079243E+15  0.2893526E+00
     714.500  0.1080877E+15  0.2897905E+00
     719.500  0.1082781E+15  0.2903010E+00
     724.500  0.1083695E+15  0.2905461E+00
     729.500  0.1084341E+15  0.2907191E+00
     734.500  0.1086160E+15  0.2912070E+00
     739.500  0.1087787E+15  0.2916431E+00
     744.500  0.1088383E+15  0.2918028E+00
     749.500  0.1089398E+15  0.2920750E+00
     754.500  0.1089048E+15  0.2919813E+00
     759.500  0.1088964E+15  0.2919586E+00
     764.500  0.1089250E+15  0.2920353E+00
     769.500  0.1089122E+15  0.2920012E+00
     774.500  0.1089589E+15  0.2921263E+00
     779.500  0.1089603E+15  0.2921301E+00
     784.500  0.1089039E+15  0.2919788E+00
     789.500  0.1089917E+15  0.2922141E+00
     794.500  0.1091648E+15  0.2926785E+00
     799.500  0.1093214E+15  0.2930982E+00
     804.500  0.1094583E+15  0.2934653E+00
     809.500  0.1095129E+15  0.2936117E+00
     814.500  0.1096047E+15  0.2938576E+00
     819.500  0.1096864E+15  0.2940769E+00
     824.500  0.1097945E+15  0.2943666E+00
     829.500  0.1098923E+15  0.2946288E+00
     834.500  0.1098649E+15  0.2945554E+00
     839.500  0.1099465E+15  0.2947740E+00
     844.500  0.1099226E+15  0.2947101E+00
     849.500  0.1098918E+15  0.2946276E+00
     854.500  0.1098826E+15  0.2946028E+00
     859.500  0.1099080E+15  0.2946709E+00
     864.500  0.1098320E+15  0.2944670E+00
     869.500  0.1098185E+15  0.2944310E+00
     874.500  0.1098639E+15  0.2945527E+00
     879.500  0.1100085E+15  0.2949403E+00
     884.500  0.1102034E+15  0.2954628E+00
     889.500  0.1103173E+15  0.2957683E+00
     894.500  0.1104172E+15  0.2960361E+00
     899.500  0.1105180E+15  0.2963062E+00
     904.500  0.1105537E+15  0.2964022E+00
     909.500  0.1106292E+15  0.2966044E+00
     914.500  0.1106288E+15  0.2966033E+00
     919.500  0.1107127E+15  0.2968283E+00
     924.500  0.1107559E+15  0.2969443E+00
     929.500  0.1107214E+15  0.2968517E+00
     934.500  0.1106141E+15  0.2965640E+00
     939.500  0.1106134E+15  0.2965620E+00
     944.500  0.1106271E+15  0.2965989E+00
     949.500  0.1105594E+15  0.2964175E+00
     954.500  0.1105834E+15  0.2964818E+00
     959.500  0.1106136E+15  0.2965626E+00
     964.500  0.1105752E+15  0.2964597E+00
     969.500  0.1107421E+15  0.2969073E+00
     974.500  0.1109008E+15  0.2973328E+00
     979.500  0.1110096E+15  0.2976243E+00
     984.500  0.1110427E+15  0.2977130E+00
     989.500  0.1111589E+15  0.2980246E+00
     994.500  0.1112245E+15  0.2982004E+00
     999.500  0.1112729E+15  0.2983304E+00
    1019.500  0.1114434E+15  0.2987873E+00
    1039.500  0.1112406E+15  0.2982436E+00
    1059.500  0.1111267E+15  0.2979384E+00
    1079.500  0.1115232E+15  0.2990012E+00
    1099.500  0.1117789E+15  0.2996868E+00
    1119.500  0.1119625E+15  0.3001792E+00
    1139.500  0.1121086E+15  0.3005709E+00
    1159.500  0.1121623E+15  0.3007148E+00
    1179.500  0.1122357E+15  0.3009115E+00
    1199.500  0.1122937E+15  0.3010670E+00
    1219.500  0.1123278E+15  0.3011584E+00
    1239.500  0.1123658E+15  0.3012605E+00
    1259.500  0.1124284E+15  0.3014281E+00
    1279.500  0.1123946E+15  0.3013375E+00
    1299.500  0.1124800E+15  0.3015667E+00
    1319.500  0.1126096E+15  0.3019140E+00
    1339.500  0.1127272E+15  0.3022294E+00
    1359.500  0.1127503E+15  0.3022914E+00
    1379.500  0.1126845E+15  0.3021150E+00
    1399.500  0.1127217E+15  0.3022147E+00
    1419.500  0.1127338E+15  0.3022469E+00
    1439.500  0.1127061E+15  0.3021728E+00
    1459.500  0.1127121E+15  0.3021889E+00
    1479.500  0.1126486E+15  0.3020185E+00
    1499.500  0.1125914E+15  0.3018653E+00
    1519.500  0.1126052E+15  0.3019024E+00
    1539.500  0.1125419E+15  0.3017325E+00
    1559.500  0.1125264E+15  0.3016910E+00
    1579.500  0.1124683E+15  0.3015352E+00
    1599.500  0.1124445E+15  0.3014714E+00
    1619.500  0.1123696E+15  0.3012707E+00
    1639.500  0.1123819E+15  0.3013035E+00
    1659.500  0.1123083E+15  0.3011062E+00
    1679.500  0.1122399E+15  0.3009230E+00
    1699.500  0.1122456E+15  0.3009383E+00
    1719.500  0.1121687E+15  0.3007319E+00
    1739.500  0.1121498E+15  0.3006813E+00
    1759.500  0.1120939E+15  0.3005314E+00
    1779.500  0.1120725E+15  0.3004740E+00
    1799.500  0.1120109E+15  0.3003088E+00
    1819.500  0.1120442E+15  0.3003982E+00
    1839.500  0.1119750E+15  0.3002128E+00
    1859.500  0.1119025E+15  0.3000184E+00
    1879.500  0.1118973E+15  0.3000042E+00
    1899.500  0.1118782E+15  0.2999531E+00
    1919.500  0.1118290E+15  0.2998212E+00
    1939.500  0.1118186E+15  0.2997933E+00
    1959.500  0.1118015E+15  0.2997475E+00
    1979.500  0.1117793E+15  0.2996880E+00
    1999.500  0.1117151E+15  0.2995157E+00
    2049.500  0.1116378E+15  0.2993086E+00
    2099.500  0.1116160E+15  0.2992501E+00
    2149.500  0.1115740E+15  0.2991377E+00
    2199.500  0.1115635E+15  0.2991095E+00
    2249.500  0.1114575E+15  0.2988253E+00
    2299.500  0.1113947E+15  0.2986568E+00
    2349.500  0.1113882E+15  0.2986394E+00
    2399.500  0.1113512E+15  0.2985402E+00
    2449.500  0.1113262E+15  0.2984732E+00
    2499.500  0.1112175E+15  0.2981818E+00
    2549.500  0.1112388E+15  0.2982388E+00
    2599.500  0.1112476E+15  0.2982626E+00
    2649.500  0.1111715E+15  0.2980585E+00
    2699.500  0.1111408E+15  0.2979761E+00
    2749.500  0.1111465E+15  0.2979914E+00
    2799.500  0.1110689E+15  0.2977834E+00
    2849.500  0.1110809E+15  0.2978155E+00
    2899.500  0.1111774E+15  0.2980743E+00
    2949.500  0.1110991E+15  0.2978643E+00
    2999.500  0.1110413E+15  0.2977095E+00
    3049.500  0.1110506E+15  0.2977344E+00
    3099.500  0.1111004E+15  0.2978679E+00
    3149.500  0.1111033E+15  0.2978757E+00
    3199.500  0.1110929E+15  0.2978478E+00
    3249.500  0.1111041E+15  0.2978777E+00
    3299.500  0.1111179E+15  0.2979147E+00
    3349.500  0.1111078E+15  0.2978877E+00
    3399.500  0.1110758E+15  0.2978018E+00
    3449.500  0.1111320E+15  0.2979525E+00
    3499.500  0.1111815E+15  0.2980852E+00
    3549.500  0.1111038E+15  0.2978768E+00
    3599.500  0.1110798E+15  0.2978125E+00
    3649.500  0.1111534E+15  0.2980098E+00
    3699.500  0.1111433E+15  0.2979829E+00
    3749.500  0.1111517E+15  0.2980054E+00
    3799.500  0.1112062E+15  0.2981515E+00
    3849.500  0.1111500E+15  0.2980009E+00
    3899.500  0.1111243E+15  0.2979320E+00
    3949.500  0.1112024E+15  0.2981413E+00
    3999.500  0.1111989E+15  0.2981319E+00
    4049.500  0.1111698E+15  0.2980539E+00
    4099.500  0.1111762E+15  0.2980709E+00
    4149.500  0.1112248E+15  0.2982014E+00
    4199.500  0.1112621E+15  0.2983014E+00
    4249.500  0.1113629E+15  0.2985717E+00
    4299.500  0.1113079E+15  0.2984240E+00
    4349.500  0.1113209E+15  0.2984589E+00
    4399.500  0.1113535E+15  0.2985463E+00
    4449.500  0.1113378E+15  0.2985044E+00
    4499.500  0.1114240E+15  0.2987355E+00
    4549.500  0.1114316E+15  0.2987558E+00
    4599.500  0.1114669E+15  0.2988505E+00
    4649.500  0.1115043E+15  0.2989506E+00
    4699.500  0.1115985E+15  0.2992033E+00
    4749.500  0.1115779E+15  0.2991479E+00
    4799.500  0.1115864E+15  0.2991709E+00
    4849.500  0.1115848E+15  0.2991664E+00
    4899.500  0.1116809E+15  0.2994241E+00
    4949.500  0.1116566E+15  0.2993590E+00
    4999.500  0.1117448E+15  0.2995954E+00
    5049.500  0.1117299E+15  0.2995556E+00
    5099.500  0.1117932E+15  0.2997253E+00
    5149.500  0.1118178E+15  0.2997913E+00
    5199.500  0.1119082E+15  0.3000334E+00
    5249.500  0.1118874E+15  0.2999777E+00
    5299.500  0.1119801E+15  0.3002262E+00
    5349.500  0.1119738E+15  0.3002095E+00
    5399.500  0.1120757E+15  0.3004828E+00
    5449.500  0.1120556E+15  0.3004288E+00
    5499.500  0.1120904E+15  0.3005220E+00
    5549.500  0.1121467E+15  0.3006730E+00
    5599.500  0.1122225E+15  0.3008762E+00
    5649.500  0.1122336E+15  0.3009061E+00
    5699.500  0.1122487E+15  0.3009466E+00
    5749.500  0.1123485E+15  0.3012140E+00
    5799.500  0.1123561E+15  0.3012343E+00
    5849.500  0.1124161E+15  0.3013953E+00
    5899.500  0.1124564E+15  0.3015033E+00
    5949.500  0.1124489E+15  0.3014833E+00
    5999.500  0.1125270E+15  0.3016926E+00
    6049.500  0.1125720E+15  0.3018133E+00
    6099.500  0.1125592E+15  0.3017789E+00
    6149.500  0.1126671E+15  0.3020682E+00
    6199.500  0.1127206E+15  0.3022116E+00
    6249.500  0.1127315E+15  0.3022408E+00
    6299.500  0.1128074E+15  0.3024443E+00
    6349.500  0.1128392E+15  0.3025297E+00
    6399.500  0.1128951E+15  0.3026795E+00
    6449.500  0.1129084E+15  0.3027151E+00
    6499.500  0.1129628E+15  0.3028609E+00
    6549.500  0.1130257E+15  0.3030297E+00
    6599.500  0.1130782E+15  0.3031705E+00
    6649.500  0.1131195E+15  0.3032812E+00
    6699.500  0.1131466E+15  0.3033537E+00
    6749.500  0.1132135E+15  0.3035331E+00
    6799.500  0.1132667E+15  0.3036759E+00
    6849.500  0.1132766E+15  0.3037024E+00
    6899.500  0.1134441E+15  0.3041514E+00
    6949.500  0.1134151E+15  0.3040737E+00
    6999.500  0.1134760E+15  0.3042370E+00
    7049.500  0.1134974E+15  0.3042944E+00
    7099.500  0.1135348E+15  0.3043945E+00
    7149.500  0.1136690E+15  0.3047545E+00
    7199.500  0.1136541E+15  0.3047144E+00
    7249.500  0.1137380E+15  0.3049393E+00
    7299.500  0.1137667E+15  0.3050162E+00
    7349.500  0.1138266E+15  0.3051769E+00
    7399.500  0.1138445E+15  0.3052248E+00
    7449.500  0.1140138E+15  0.3056789E+00
    7499.500  0.1139787E+15  0.3055847E+00
    7549.500  0.1140874E+15  0.3058762E+00
    7599.500  0.1140743E+15  0.3058411E+00
    7649.500  0.1141141E+15  0.3059478E+00
    7699.500  0.1141910E+15  0.3061539E+00
    7749.500  0.1142249E+15  0.3062448E+00
    7799.500  0.1142585E+15  0.3063349E+00
    7849.500  0.1143420E+15  0.3065586E+00
    7899.500  0.1143801E+15  0.3066610E+00
    7949.500  0.1144535E+15  0.3068576E+00
    7999.500  0.1144975E+15  0.3069755E+00
    8049.500  0.1145755E+15  0.3071847E+00
    8099.500  0.1146204E+15  0.3073052E+00
    8149.500  0.1146628E+15  0.3074189E+00
    8199.500  0.1146882E+15  0.3074869E+00
    8249.500  0.1147296E+15  0.3075979E+00
    8299.500  0.1147817E+15  0.3077376E+00
    8349.500  0.1148659E+15  0.3079633E+00
    8399.500  0.1148708E+15  0.3079764E+00
    8449.500  0.1149724E+15  0.3082490E+00
    8499.500  0.1150128E+15  0.3083572E+00
    8549.500  0.1150210E+15  0.3083791E+00
    8599.500  0.1150673E+15  0.3085034E+00
    8649.500  0.1151181E+15  0.3086394E+00
    8699.500  0.1151553E+15  0.3087392E+00
    8749.500  0.1151808E+15  0.3088076E+00
    8799.500  0.1152556E+15  0.3090081E+00
    8849.500  0.1152625E+15  0.3090267E+00
    8899.500  0.1153486E+15  0.3092575E+00
    8949.500  0.1153791E+15  0.3093393E+00
    8999.500  0.1154213E+15  0.3094524E+00
    9049.500  0.1154568E+15  0.3095476E+00
    9099.500  0.1154872E+15  0.3096291E+00
    9149.500  0.1155360E+15  0.3097599E+00
    9199.500  0.1156083E+15  0.3099539E+00
    9249.500  0.1156020E+15  0.3099368E+00
    9299.500  0.1156324E+15  0.3100184E+00
    9349.500  0.1156638E+15  0.3101025E+00
    9399.500  0.1157395E+15  0.3103054E+00
    9449.500  0.1157986E+15  0.3104641E+00
    9499.500  0.1158161E+15  0.3105108E+00
    9549.500  0.1158302E+15  0.3105487E+00
    9599.500  0.1158617E+15  0.3106332E+00
    9649.500  0.1158661E+15  0.3106449E+00
    9699.500  0.1159476E+15  0.3108634E+00
    9749.500  0.1159603E+15  0.3108976E+00
    9799.500  0.1159735E+15  0.3109329E+00
    9849.500  0.1160700E+15  0.3111918E+00
    9899.500  0.1160962E+15  0.3112620E+00
    9949.500  0.1160881E+15  0.3112401E+00
    9999.500  0.1161559E+15  0.3114219E+00
   10199.500  0.1162269E+15  0.3116123E+00
   10399.500  0.1163534E+15  0.3119513E+00
   10599.500  0.1164366E+15  0.3121746E+00
   10799.500  0.1165911E+15  0.3125887E+00
   10999.500  0.1167018E+15  0.3128855E+00
   11199.500  0.1167681E+15  0.3130633E+00
   11399.500  0.1168898E+15  0.3133897E+00
   11599.500  0.1169771E+15  0.3136237E+00
   11799.500  0.1170672E+15  0.3138651E+00
   11999.500  0.1171967E+15  0.3142125E+00
   12199.500  0.1172701E+15  0.3144091E+00
   12399.500  0.1173646E+15  0.3146626E+00
   12599.500  0.1174942E+15  0.3150100E+00
