 % time (yr) / global CaCO3_13C flux (mol yr-1) / global CaCO3_13C delta (o/oo)
       0.500  0.1911084E+13         4.187
       1.500  0.1730344E+13         4.973
       2.500  0.1567771E+13         5.194
       3.500  0.1428869E+13         5.273
       4.500  0.1315571E+13         5.269
       5.500  0.1225836E+13         5.232
       6.500  0.1155050E+13         5.187
       7.500  0.1097969E+13         5.150
       8.500  0.1050620E+13         5.123
       9.500  0.1011016E+13         5.102
      10.500  0.9777520E+12         5.080
      11.500  0.9495774E+12         5.057
      12.500  0.9254947E+12         5.029
      13.500  0.9035049E+12         5.001
      14.500  0.8840053E+12         4.971
      15.500  0.8669188E+12         4.941
      16.500  0.8525768E+12         4.911
      17.500  0.8401809E+12         4.881
      18.500  0.8289052E+12         4.852
      19.500  0.8190661E+12         4.824
      21.500  0.8041151E+12         4.771
      23.500  0.7953041E+12         4.721
      25.500  0.7873023E+12         4.679
      27.500  0.7807933E+12         4.644
      29.500  0.7762662E+12         4.612
      31.500  0.7740145E+12         4.581
      33.500  0.7722716E+12         4.554
      35.500  0.7702780E+12         4.532
      37.500  0.7688455E+12         4.512
      39.500  0.7672224E+12         4.493
      41.500  0.7663950E+12         4.473
      43.500  0.7656299E+12         4.454
      45.500  0.7652516E+12         4.435
      47.500  0.7662018E+12         4.415
      49.500  0.7671808E+12         4.396
      51.500  0.7685282E+12         4.378
      53.500  0.7696206E+12         4.361
      55.500  0.7717711E+12         4.344
      57.500  0.7736886E+12         4.328
      59.500  0.7762487E+12         4.312
      61.500  0.7792914E+12         4.297
      63.500  0.7818039E+12         4.283
      65.500  0.7845937E+12         4.270
      67.500  0.7869204E+12         4.257
      69.500  0.7900401E+12         4.244
      71.500  0.7932357E+12         4.233
      73.500  0.7962178E+12         4.222
      75.500  0.7990466E+12         4.212
      77.500  0.8020235E+12         4.203
      79.500  0.8050769E+12         4.194
      81.500  0.8081937E+12         4.185
      83.500  0.8115352E+12         4.177
      85.500  0.8149688E+12         4.170
      87.500  0.8183558E+12         4.161
      89.500  0.8215341E+12         4.155
      91.500  0.8252323E+12         4.147
      93.500  0.8292925E+12         4.141
      95.500  0.8328285E+12         4.134
      97.500  0.8361700E+12         4.129
      99.500  0.8388127E+12         4.123
     104.500  0.8471074E+12         4.108
     109.500  0.8545860E+12         4.095
     114.500  0.8616397E+12         4.082
     119.500  0.8687405E+12         4.071
     124.500  0.8763884E+12         4.060
     129.500  0.8835374E+12         4.050
     134.500  0.8908264E+12         4.040
     139.500  0.8980994E+12         4.032
     144.500  0.9047472E+12         4.023
     149.500  0.9118867E+12         4.015
     154.500  0.9178120E+12         4.007
     159.500  0.9247091E+12         4.000
     164.500  0.9305824E+12         3.993
     169.500  0.9365741E+12         3.987
     174.500  0.9432715E+12         3.980
     179.500  0.9488362E+12         3.974
     184.500  0.9545416E+12         3.969
     189.500  0.9598419E+12         3.964
     194.500  0.9657133E+12         3.958
     199.500  0.9723642E+12         3.953
     204.500  0.9768114E+12         3.948
     209.500  0.9819794E+12         3.944
     214.500  0.9874948E+12         3.940
     219.500  0.9915576E+12         3.937
     224.500  0.9973779E+12         3.932
     229.500  0.1003380E+13         3.928
     234.500  0.1007350E+13         3.924
     239.500  0.1011557E+13         3.920
     244.500  0.1015043E+13         3.916
     249.500  0.1018811E+13         3.914
     254.500  0.1023311E+13         3.911
     259.500  0.1027139E+13         3.909
     264.500  0.1032494E+13         3.906
     269.500  0.1035667E+13         3.903
     274.500  0.1038967E+13         3.900
     279.500  0.1043064E+13         3.898
     284.500  0.1046755E+13         3.896
     289.500  0.1049764E+13         3.893
     294.500  0.1054441E+13         3.890
     299.500  0.1059299E+13         3.887
     304.500  0.1063261E+13         3.884
     309.500  0.1066343E+13         3.882
     314.500  0.1069645E+13         3.880
     319.500  0.1071868E+13         3.878
     324.500  0.1074336E+13         3.876
     329.500  0.1077018E+13         3.875
     334.500  0.1079546E+13         3.874
     339.500  0.1081840E+13         3.873
     344.500  0.1086306E+13         3.872
     349.500  0.1088582E+13         3.870
     354.500  0.1091133E+13         3.867
     359.500  0.1092741E+13         3.866
     364.500  0.1095441E+13         3.866
     369.500  0.1097754E+13         3.863
     374.500  0.1100261E+13         3.862
     379.500  0.1105170E+13         3.859
     384.500  0.1108619E+13         3.856
     389.500  0.1111321E+13         3.853
     394.500  0.1114138E+13         3.852
     399.500  0.1115662E+13         3.852
     404.500  0.1117700E+13         3.851
     409.500  0.1119952E+13         3.849
     414.500  0.1121356E+13         3.849
     419.500  0.1122621E+13         3.848
     424.500  0.1124992E+13         3.848
     429.500  0.1126406E+13         3.848
     434.500  0.1128751E+13         3.847
     439.500  0.1130996E+13         3.846
     444.500  0.1132211E+13         3.845
     449.500  0.1133056E+13         3.844
     454.500  0.1135290E+13         3.843
     459.500  0.1138597E+13         3.840
     464.500  0.1141554E+13         3.838
     469.500  0.1143078E+13         3.837
     474.500  0.1144777E+13         3.835
     479.500  0.1146901E+13         3.835
     484.500  0.1149374E+13         3.833
     489.500  0.1151022E+13         3.832
     494.500  0.1151055E+13         3.832
     499.500  0.1151738E+13         3.832
     504.500  0.1152485E+13         3.833
     509.500  0.1153938E+13         3.833
     514.500  0.1155212E+13         3.833
     519.500  0.1156988E+13         3.833
     524.500  0.1158460E+13         3.831
     529.500  0.1160669E+13         3.830
     534.500  0.1160261E+13         3.830
     539.500  0.1163432E+13         3.827
     544.500  0.1165738E+13         3.826
     549.500  0.1167402E+13         3.824
     554.500  0.1169321E+13         3.823
     559.500  0.1171357E+13         3.822
     564.500  0.1172779E+13         3.822
     569.500  0.1174203E+13         3.821
     574.500  0.1174421E+13         3.822
     579.500  0.1174266E+13         3.822
     584.500  0.1174919E+13         3.822
     589.500  0.1175693E+13         3.823
     594.500  0.1176851E+13         3.824
     599.500  0.1177932E+13         3.824
     604.500  0.1180025E+13         3.823
     609.500  0.1181702E+13         3.821
     614.500  0.1181322E+13         3.822
     619.500  0.1182767E+13         3.821
     624.500  0.1184727E+13         3.819
     629.500  0.1187400E+13         3.817
     634.500  0.1187926E+13         3.816
     639.500  0.1190131E+13         3.814
     644.500  0.1192076E+13         3.814
     649.500  0.1193789E+13         3.813
     654.500  0.1194440E+13         3.813
     659.500  0.1194781E+13         3.813
     664.500  0.1194860E+13         3.813
     669.500  0.1194589E+13         3.815
     674.500  0.1195302E+13         3.815
     679.500  0.1195500E+13         3.816
     684.500  0.1195324E+13         3.817
     689.500  0.1196418E+13         3.816
     694.500  0.1198305E+13         3.815
     699.500  0.1199545E+13         3.815
     704.500  0.1199823E+13         3.815
     709.500  0.1200085E+13         3.814
     714.500  0.1201899E+13         3.812
     719.500  0.1204013E+13         3.810
     724.500  0.1205029E+13         3.809
     729.500  0.1205746E+13         3.809
     734.500  0.1207768E+13         3.807
     739.500  0.1209575E+13         3.806
     744.500  0.1210238E+13         3.807
     749.500  0.1211367E+13         3.806
     754.500  0.1210979E+13         3.807
     759.500  0.1210885E+13         3.807
     764.500  0.1211202E+13         3.807
     769.500  0.1211064E+13         3.809
     774.500  0.1211583E+13         3.809
     779.500  0.1211599E+13         3.809
     784.500  0.1210972E+13         3.810
     789.500  0.1211948E+13         3.810
     794.500  0.1213873E+13         3.809
     799.500  0.1215610E+13         3.806
     804.500  0.1217131E+13         3.805
     809.500  0.1217737E+13         3.804
     814.500  0.1218756E+13         3.803
     819.500  0.1219664E+13         3.802
     824.500  0.1220865E+13         3.801
     829.500  0.1221952E+13         3.800
     834.500  0.1221649E+13         3.802
     839.500  0.1222555E+13         3.801
     844.500  0.1222290E+13         3.802
     849.500  0.1221949E+13         3.802
     854.500  0.1221847E+13         3.803
     859.500  0.1222130E+13         3.804
     864.500  0.1221286E+13         3.805
     869.500  0.1221135E+13         3.804
     874.500  0.1221641E+13         3.804
     879.500  0.1223247E+13         3.803
     884.500  0.1225410E+13         3.800
     889.500  0.1226676E+13         3.799
     894.500  0.1227784E+13         3.797
     899.500  0.1228903E+13         3.795
     904.500  0.1229300E+13         3.795
     909.500  0.1230139E+13         3.795
     914.500  0.1230134E+13         3.795
     919.500  0.1231067E+13         3.795
     924.500  0.1231548E+13         3.795
     929.500  0.1231165E+13         3.795
     934.500  0.1229972E+13         3.795
     939.500  0.1229965E+13         3.797
     944.500  0.1230119E+13         3.797
     949.500  0.1229368E+13         3.799
     954.500  0.1229634E+13         3.798
     959.500  0.1229969E+13         3.798
     964.500  0.1229542E+13         3.797
     969.500  0.1231396E+13         3.796
     974.500  0.1233157E+13         3.793
     979.500  0.1234364E+13         3.792
     984.500  0.1234731E+13         3.790
     989.500  0.1236021E+13         3.788
     994.500  0.1236750E+13         3.788
     999.500  0.1237288E+13         3.788
    1019.500  0.1239183E+13         3.787
    1039.500  0.1236932E+13         3.791
    1059.500  0.1235667E+13         3.792
    1079.500  0.1240065E+13         3.784
    1099.500  0.1242904E+13         3.780
    1119.500  0.1244945E+13         3.779
    1139.500  0.1246570E+13         3.779
    1159.500  0.1247165E+13         3.778
    1179.500  0.1247980E+13         3.777
    1199.500  0.1248623E+13         3.775
    1219.500  0.1249001E+13         3.774
    1239.500  0.1249422E+13         3.773
    1259.500  0.1250115E+13         3.771
    1279.500  0.1249739E+13         3.771
    1299.500  0.1250687E+13         3.769
    1319.500  0.1252122E+13         3.764
    1339.500  0.1253424E+13         3.760
    1359.500  0.1253679E+13         3.758
    1379.500  0.1252947E+13         3.758
    1399.500  0.1253359E+13         3.756
    1419.500  0.1253490E+13         3.754
    1439.500  0.1253182E+13         3.753
    1459.500  0.1253247E+13         3.752
    1479.500  0.1252540E+13         3.752
    1499.500  0.1251904E+13         3.751
    1519.500  0.1252056E+13         3.750
    1539.500  0.1251351E+13         3.750
    1559.500  0.1251178E+13         3.749
    1579.500  0.1250532E+13         3.749
    1599.500  0.1250265E+13         3.747
    1619.500  0.1249432E+13         3.747
    1639.500  0.1249566E+13         3.745
    1659.500  0.1248748E+13         3.745
    1679.500  0.1247989E+13         3.745
    1699.500  0.1248050E+13         3.744
    1719.500  0.1247194E+13         3.744
    1739.500  0.1246984E+13         3.743
    1759.500  0.1246362E+13         3.743
    1779.500  0.1246121E+13         3.741
    1799.500  0.1245436E+13         3.741
    1819.500  0.1245805E+13         3.740
    1839.500  0.1245036E+13         3.739
    1859.500  0.1244230E+13         3.740
    1879.500  0.1244170E+13         3.739
    1899.500  0.1243958E+13         3.738
    1919.500  0.1243410E+13         3.738
    1939.500  0.1243294E+13         3.737
    1959.500  0.1243102E+13         3.736
    1979.500  0.1242855E+13         3.736
    1999.500  0.1242140E+13         3.735
    2049.500  0.1241279E+13         3.733
    2099.500  0.1241034E+13         3.731
    2149.500  0.1240566E+13         3.730
    2199.500  0.1240447E+13         3.728
    2249.500  0.1239268E+13         3.728
    2299.500  0.1238568E+13         3.727
    2349.500  0.1238492E+13         3.724
    2399.500  0.1238081E+13         3.724
    2449.500  0.1237800E+13         3.721
    2499.500  0.1236591E+13         3.721
    2549.500  0.1236824E+13         3.719
    2599.500  0.1236920E+13         3.716
    2649.500  0.1236075E+13         3.717
    2699.500  0.1235731E+13         3.715
    2749.500  0.1235793E+13         3.714
    2799.500  0.1234929E+13         3.713
    2849.500  0.1235059E+13         3.711
    2899.500  0.1236129E+13         3.708
    2949.500  0.1235257E+13         3.707
    2999.500  0.1234615E+13         3.707
    3049.500  0.1234717E+13         3.706
    3099.500  0.1235268E+13         3.704
    3149.500  0.1235299E+13         3.703
    3199.500  0.1235182E+13         3.702
    3249.500  0.1235305E+13         3.701
    3299.500  0.1235455E+13         3.698
    3349.500  0.1235342E+13         3.697
    3399.500  0.1234984E+13         3.696
    3449.500  0.1235606E+13         3.693
    3499.500  0.1236154E+13         3.692
    3549.500  0.1235291E+13         3.692
    3599.500  0.1235023E+13         3.691
    3649.500  0.1235839E+13         3.689
    3699.500  0.1235726E+13         3.688
    3749.500  0.1235817E+13         3.686
    3799.500  0.1236419E+13         3.683
    3849.500  0.1235794E+13         3.683
    3899.500  0.1235508E+13         3.683
    3949.500  0.1236372E+13         3.679
    3999.500  0.1236333E+13         3.679
    4049.500  0.1236007E+13         3.678
    4099.500  0.1236077E+13         3.677
    4149.500  0.1236616E+13         3.675
    4199.500  0.1237029E+13         3.673
    4249.500  0.1238145E+13         3.670
    4299.500  0.1237533E+13         3.670
    4349.500  0.1237676E+13         3.669
    4399.500  0.1238036E+13         3.666
    4449.500  0.1237861E+13         3.665
    4499.500  0.1238817E+13         3.664
    4549.500  0.1238899E+13         3.662
    4599.500  0.1239291E+13         3.662
    4649.500  0.1239705E+13         3.661
    4699.500  0.1240750E+13         3.658
    4749.500  0.1240518E+13         3.657
    4799.500  0.1240612E+13         3.656
    4849.500  0.1240593E+13         3.655
    4899.500  0.1241660E+13         3.653
    4949.500  0.1241389E+13         3.652
    4999.500  0.1242367E+13         3.651
    5049.500  0.1242201E+13         3.650
    5099.500  0.1242903E+13         3.648
    5149.500  0.1243174E+13         3.646
    5199.500  0.1244176E+13         3.645
    5249.500  0.1243945E+13         3.645
    5299.500  0.1244973E+13         3.642
    5349.500  0.1244903E+13         3.642
    5399.500  0.1246033E+13         3.639
    5449.500  0.1245808E+13         3.639
    5499.500  0.1246194E+13         3.638
    5549.500  0.1246819E+13         3.637
    5599.500  0.1247658E+13         3.634
    5649.500  0.1247782E+13         3.635
    5699.500  0.1247948E+13         3.633
    5749.500  0.1249055E+13         3.631
    5799.500  0.1249139E+13         3.631
    5849.500  0.1249803E+13         3.628
    5899.500  0.1250250E+13         3.628
    5949.500  0.1250166E+13         3.627
    5999.500  0.1251031E+13         3.624
    6049.500  0.1251532E+13         3.624
    6099.500  0.1251389E+13         3.624
    6149.500  0.1252584E+13         3.621
    6199.500  0.1253176E+13         3.619
    6249.500  0.1253299E+13         3.619
    6299.500  0.1254139E+13         3.617
    6349.500  0.1254494E+13         3.617
    6399.500  0.1255113E+13         3.615
    6449.500  0.1255259E+13         3.615
    6499.500  0.1255862E+13         3.613
    6549.500  0.1256561E+13         3.612
    6599.500  0.1257143E+13         3.611
    6649.500  0.1257601E+13         3.610
    6699.500  0.1257899E+13         3.608
    6749.500  0.1258641E+13         3.607
    6799.500  0.1259233E+13         3.606
    6849.500  0.1259342E+13         3.606
    6899.500  0.1261200E+13         3.602
    6949.500  0.1260877E+13         3.602
    6999.500  0.1261553E+13         3.601
    7049.500  0.1261791E+13         3.601
    7099.500  0.1262205E+13         3.600
    7149.500  0.1263695E+13         3.598
    7199.500  0.1263527E+13         3.597
    7249.500  0.1264460E+13         3.597
    7299.500  0.1264777E+13         3.595
    7349.500  0.1265442E+13         3.594
    7399.500  0.1265639E+13         3.593
    7449.500  0.1267519E+13         3.591
    7499.500  0.1267127E+13         3.590
    7549.500  0.1268335E+13         3.589
    7599.500  0.1268190E+13         3.589
    7649.500  0.1268631E+13         3.588
    7699.500  0.1269483E+13         3.586
    7749.500  0.1269860E+13         3.586
    7799.500  0.1270232E+13         3.585
    7849.500  0.1271157E+13         3.583
    7899.500  0.1271581E+13         3.583
    7949.500  0.1272395E+13         3.582
    7999.500  0.1272883E+13         3.580
    8049.500  0.1273749E+13         3.580
    8099.500  0.1274248E+13         3.579
    8149.500  0.1274718E+13         3.578
    8199.500  0.1274999E+13         3.577
    8249.500  0.1275459E+13         3.577
    8299.500  0.1276037E+13         3.576
    8349.500  0.1276970E+13         3.574
    8399.500  0.1277026E+13         3.574
    8449.500  0.1278153E+13         3.572
    8499.500  0.1278601E+13         3.572
    8549.500  0.1278693E+13         3.572
    8599.500  0.1279206E+13         3.571
    8649.500  0.1279769E+13         3.570
    8699.500  0.1280181E+13         3.569
    8749.500  0.1280465E+13         3.569
    8799.500  0.1281294E+13         3.567
    8849.500  0.1281372E+13         3.567
    8899.500  0.1282326E+13         3.565
    8949.500  0.1282665E+13         3.565
    8999.500  0.1283134E+13         3.565
    9049.500  0.1283526E+13         3.563
    9099.500  0.1283862E+13         3.562
    9149.500  0.1284405E+13         3.562
    9199.500  0.1285208E+13         3.561
    9249.500  0.1285137E+13         3.561
    9299.500  0.1285474E+13         3.560
    9349.500  0.1285823E+13         3.559
    9399.500  0.1286663E+13         3.559
    9449.500  0.1287319E+13         3.557
    9499.500  0.1287512E+13         3.557
    9549.500  0.1287669E+13         3.557
    9599.500  0.1288019E+13         3.556
    9649.500  0.1288066E+13         3.555
    9699.500  0.1288971E+13         3.554
    9749.500  0.1289112E+13         3.554
    9799.500  0.1289258E+13         3.554
    9849.500  0.1290329E+13         3.552
    9899.500  0.1290620E+13         3.551
    9949.500  0.1290530E+13         3.552
    9999.500  0.1291281E+13         3.550
   10199.500  0.1292070E+13         3.550
   10399.500  0.1293472E+13         3.546
   10599.500  0.1294395E+13         3.544
   10799.500  0.1296109E+13         3.542
   10999.500  0.1297338E+13         3.540
   11199.500  0.1298073E+13         3.539
   11399.500  0.1299424E+13         3.537
   11599.500  0.1300392E+13         3.535
   11799.500  0.1301392E+13         3.535
   11999.500  0.1302830E+13         3.533
   12199.500  0.1303643E+13         3.531
   12399.500  0.1304693E+13         3.530
   12599.500  0.1306132E+13         3.529
   12799.500  0.1307382E+13         3.527
   12999.500  0.1308482E+13         3.526
   13199.500  0.1309384E+13         3.526
   13399.500  0.1311011E+13         3.524
   13599.500  0.1311880E+13         3.524
   13799.500  0.1313284E+13         3.523
   13999.500  0.1314063E+13         3.521
   14199.500  0.1315392E+13         3.521
   14399.500  0.1316815E+13         3.521
   14599.500  0.1317950E+13         3.519
   14799.500  0.1319235E+13         3.519
